time,mV

2025 06 26 11:42:14.431748,339
,611
,919
,575
,563
,608
,786
,719
,672
,638
,651
,600
,506
,880
2025 06 26 11:42:14.687810,571
,668
,588
,744
,1002
,708
,624
,755
,701
,643
,626
,599
,573
,654
2025 06 26 11:42:14.935041,769
,617
,883
,749
,757
,697
,611
,548
,661
,365
,795
,435
,591
,617
2025 06 26 11:42:15.167404,742
,855
,605
,767
,586
,794
,790
,763
,999
,832
,653
,718
,493
,1025
2025 06 26 11:42:15.399735,667
,484
,920
,820
,871
,971
,633
,828
,793
,368
,548
,1023
,942
,827
2025 06 26 11:42:15.655113,535
,728
,520
,607
,1023
,801
,896
,535
,917
,752
,998
,775
,811
,736
2025 06 26 11:43:48.001372,28163
,15873
,34817
,40963
,30721
,40451
,9986
,34305
,45823
,0
,5986
2025 06 26 11:42:16.512713,458
,785
,679
,734
,844
,548
,939
,593
,254
,901
,755
,632
,1076
,946
2025 06 26 11:42:16.777088,712
,848
,599
,619
,633
,1078
,740
,819
,1145
,879
,648
,1078
,749
,1083
2025 06 26 11:42:17.025478,950
,765
,665
,687
,934
,787
,930
,658
,769
,841
,524
,755
,714
,754
2025 06 26 11:42:17.273785,904
,633
,771
,318
,1135
,481
,535
,586
,752
,676
,1248
,556
,660
,938
2025 06 26 11:42:17.513156,658
,834
,697
,1023
,1058
,788
,877
,840
,782
,742
,782
,910
,600
,940
2025 06 26 11:42:17.769339,547
,714
,950
,860
,710
,452
,1029
,792
,729
,602
,793
,775
,880
,827
2025 06 26 11:42:18.041594,638
,1215
,597
,724
,624
,545
,687
,1077
,635
,809
,787
,965
,1058
,1080
2025 06 26 11:42:18.314066,757
,804
,663
,422
,935
,550
,412
,806
,215
,738
,751
,809
,561
,477
2025 06 26 11:42:18.586388,940
,931
,975
,695
,503
,576
,629
,945
,567
,558
,601
,658
,242
,667
2025 06 26 11:42:18.842805,704
,510
,656
,1024
,858
,583
,795
,1124
,704
,953
,1158
,1060
,687
,819
2025 06 26 11:42:19.090207,958
,623
,972
,498
,755
,624
,580
,715
,562
,718
,944
,423
,577
,472
2025 06 26 11:42:19.314460,740
,531
,1077
,878
,522
,603
,766
,983
,699
,582
,705
,1094
,423
,623
2025 06 26 11:42:19.562818,1021
,760
,973
,571
,1037
,834
,900
,1051
,866
,1067
,883
,1242
,531
,727
2025 06 26 11:42:19.818397,871
,949
,792
,471
,775
,750
,611
,846
,1409
,970
,1261
,313
,1332
,574
2025 06 26 11:42:20.075404,863
,522
,818
,534
,1073
,576
,717
,1014
,740
,812
,736
,385
,862
,987
2025 06 26 11:42:20.354740,1130
,736
,842
,767
,1013
,520
,995
,515
,912
,713
,970
,758
,688
,1202
2025 06 26 11:42:20.626981,671
,997
,1015
,626
,833
,962
,585
,1157
,911
,693
,801
,897
,1017
,614
2025 06 26 11:42:20.875389,1073
,850
,555
,987
,598
,720
,321
,763
,853
,834
,495
,711
,1045
,1080
2025 06 26 11:42:21.131813,842
,913
,780
,917
,541
,671
,1228
,339
,692
,669
,731
,708
,861
,765
2025 06 26 11:42:21.363122,927
,569
,425
,852
,637
,672
,1020
,570
,717
,402
,980
,781
,683
,679
2025 06 26 11:42:23.645294,629
,1072
,711
,898
,768
,1269
,1351
,679
,770
,1064
,738
,741
,718
,742
2025 06 26 11:42:23.901579,751
,506
,504
,623
,815
,781
,384
,718
,656
,638
,717
,698
,659
,506
2025 06 26 11:42:24.164909,780
,661
,713
,468
,548
,1022
,581
,1164
,722
,610
,803
,623
,1010
,758
2025 06 26 11:42:24.444274,1123
,955
,782
,678
,422
,733
,995
,677
,301
,632
,580
,710
,777
,764
2025 06 26 11:42:24.717510,976
,912
,515
,1119
,582
,786
,753
,861
,426
,1020
,1167
,695
,670
,449
2025 06 26 11:42:24.972928,482
,670
,626
,713
,892
,640
,856
,957
,996
,893
,778
,781
,769
,634
2025 06 26 11:42:25.229070,760
,939
,538
,650
,486
,576
,984
,470
,691
,307
,605
,664
,771
,896
2025 06 26 11:42:25.453372,1040
,428
,730
,929
,837
,944
,978
,362
,658
,567
,641
,909
,660
,624
2025 06 26 11:42:25.694745,985
,705
,1244
,751
,1071
,1024
,826
,977
,558
,981
,915
,829
,777
,940
2025 06 26 11:42:25.950049,767
,528
,928
,456
,598
,855
,664
,710
,603
,731
,672
,621
,1100
,1059
2025 06 26 11:42:26.214426,617
,828
,986
,670
,429
,657
,1105
,392
,764
,363
,713
,687
,902
,376
2025 06 26 11:42:26.493808,1357
,519
,846
,999
,631
,889
,815
,474
,558
,704
,950
,936
,982
,747
2025 06 26 11:42:26.766105,663
,588
,902
,898
,832
,1113
,560
,736
,808
,1054
,619
,768
,623
,785
2025 06 26 11:42:27.030451,644
,660
,245
,832
,623
,691
,695
,291
,910
,837
,872
,864
,286
,928
2025 06 26 11:42:27.278794,818
,762
,605
,684
,837
,558
,433
,942
,825
,598
,591
,643
,447
,414
2025 06 26 11:42:27.502176,834
,405
,897
,661
,785
,953
,707
,966
,826
,766
,523
,980
,884
,900
2025 06 26 11:42:27.743509,683
,621
,1054
,369
,662
,641
,628
,747
,872
,838
,886
,1051
,796
,850
2025 06 26 11:42:27.998971,917
,673
,1012
,574
,654
,771
,817
,692
,658
,1018
,543
,621
,832
,155
2025 06 26 11:42:28.278179,696
,856
,430
,692
,846
,526
,709
,1025
,172
,328
,538
,465
,975
,629
2025 06 26 11:42:28.551396,830
,707
,732
,861
,804
,1077
,896
,974
,997
,872
,617
,754
,847
,578
2025 06 26 11:42:28.823776,730
,846
,541
,442
,577
,247
,314
,745
,814
,762
,467
,252
,686
,713
2025 06 26 11:42:29.079190,1005
,941
,522
,757
,873
,273
,791
,1175
,536
,781
,1109
,604
,825
,1009
2025 06 26 11:42:29.319447,773
,941
,872
,553
,748
,770
,606
,778
,595
,445
,740
,275
,563
,826
2025 06 26 11:42:29.543814,373
,753
,391
,521
,1034
,648
,660
,181
,978
,580
,1061
,615
,902
,640
2025 06 26 11:42:29.791974,900
,714
,479
,576
,674
,946
,1149
,781
,1005
,968
,863
,952
,676
,867
2025 06 26 11:42:30.048309,680
,792
,934
,973
,798
,926
,1079
,861
,660
,1007
,1050
,532
,1168
,760
2025 06 26 11:42:30.327645,989
,736
,554
,416
,1045
,584
,895
,1098
,1281
,899
,629
,765
,832
,762
2025 06 26 11:42:30.599960,517
,437
,825
,657
,707
,831
,1072
,587
,620
,853
,909
,877
,701
,642
2025 06 26 11:42:30.872271,929
,652
,1083
,685
,771
,613
,723
,967
,560
,291
,384
,884
,548
,827
2025 06 26 11:42:31.128614,860
,420
,823
,523
,706
,558
,441
,693
,854
,366
,559
,750
,741
,408
2025 06 26 11:42:31.367913,394
,392
,796
,454
,798
,699
,713
,497
,844
,365
,341
,482
,502
,516
2025 06 26 11:42:31.592228,460
,597
,265
,371
,269
,303
,555
,647
,385
,115
,427
,377
,594
,233
2025 06 26 11:42:31.841503,475
,508
,190
,660
,414
,177
,800
,808
,1066
,492
,461
,268
,706
,663
2025 06 26 11:42:32.097802,863
,957
,781
,706
,794
,530
,593
,330
,519
,503
,494
,559
,1186
,760
2025 06 26 11:42:32.376099,729
,728
,666
,443
,109
,747
,596
,538
,702
,601
,551
,474
,1098
,378
2025 06 26 11:42:32.649435,646
,818
,624
,539
,724
,694
,1020
,967
,768
,816
,612
,1069
,707
,767
2025 06 26 11:42:32.921772,611
,1001
,1024
,320
,982
,433
,648
,750
,1238
,583
,1064
,89
,37379
2025 06 26 11:42:33.417065,754
,751
,604
,941
,795
,668
,673
,836
,1038
,954
,698
,1089
,733
,1233
2025 06 26 11:42:33.641442,688
,962
,827
,589
,912
,806
,869
,1035
,919
,874
,742
,733
,774
,527
2025 06 26 11:42:33.897636,725
,433
,882
,983
,888
,971
,758
,659
,877
,750
,312
,419
,954
,952
2025 06 26 11:42:34.153998,760
,703
,743
,706
,741
,536
,435
,788
,804
,1114
,890
,899
,854
,1020
2025 06 26 11:42:34.433366,926
,923
,657
,744
,721
,962
,442
,840
,839
,423
,634
,824
,768
,681
2025 06 26 11:42:34.706742,708
,793
,794
,813
,759
,561
,1001
,1094
,860
,754
,826
,793
,757
,607
2025 06 26 11:42:37.003021,735
,1135
,1037
,987
,835
,793
,623
,417
,612
,621
,677
,781
,967
,695
2025 06 26 11:42:37.259184,1266
,584
,915
,967
,720
,1156
,759
,996
,1158
,954
,829
,1023
,897
,1076
2025 06 26 11:42:37.491528,843
,609
,776
,671
,653
,752
,958
,716
,684
,833
,1105
,862
,1148
,623
2025 06 26 11:42:37.722836,995
,727
,1153
,513
,741
,390
,693
,925
,556
,883
,566
,494
,930
,626
2025 06 26 11:42:37.979129,770
,596
,344
,554
,881
,732
,1033
,709
,1219
,808
,831
,728
,690
,648
2025 06 26 11:42:38.235367,251
,374
,841
,463
,754
,713
,542
,1089
,766
,823
,806
,614
,407
,919
2025 06 26 11:42:38.508787,788
,984
,750
,185
,635
,703
,563
,785
,665
,783
,628
,959
,700
,1207
2025 06 26 11:42:38.787158,932
,985
,769
,1237
,570
,784
,1071
,744
,895
,652
,974
,510
,808
,845
2025 06 26 11:42:39.060469,983
,1010
,1219
,847
,703
,767
,999
,1262
,664
,1085
,820
,638
,632
,890
2025 06 26 11:42:39.308780,891
,717
,612
,808
,740
,733
,781
,789
,797
,989
,921
,955
,821
,602
2025 06 26 11:42:39.556137,522
,741
,639
,991
,595
,833
,520
,942
,987
,1024
,795
,708
,1002
,691
2025 06 26 11:42:39.796363,862
,815
,647
,996
,809
,753
,656
,907
,1022
,539
,551
,815
,689
,760
2025 06 26 11:42:40.051928,412
,1035
,541
,879
,780
,657
,996
,700
,682
,1017
,720
,621
,749
,537
2025 06 26 11:42:40.316073,580
,669
,1087
,511
,717
,711
,1213
,456
,854
,749
,772
,731
,762
,746
2025 06 26 11:42:40.589456,787
,494
,878
,1060
,745
,642
,581
,1001
,669
,515
,1130
,766
,492
,738
2025 06 26 11:42:40.861674,670
,639
,583
,648
,984
,1008
,690
,623
,216
,698
,268
,803
,1074
,955
2025 06 26 11:42:41.124992,849
,1147
,783
,772
,968
,1287
,790
,739
,768
,808
,424
,938
,725
,783
2025 06 26 11:42:41.373110,831
,560
,715
,587
,666
,876
,794
,811
,795
,775
,714
,644
,600
,925
2025 06 26 11:42:41.597415,808
,321
,1086
,478
,476
,109
,481
,838
,848
,740
,692
,762
,866
,734
2025 06 26 11:42:41.845760,765
,912
,984
,669
,770
,926
,669
,571
,769
,860
,918
,124
,28163
2025 06 26 11:42:42.357058,829
,747
,796
,696
,816
,870
,930
,788
,635
,1179
,760
,1033
,507
,969
2025 06 26 11:42:42.629339,870
,790
,762
,828
,738
,1270
,1104
,400
,953
,519
,518
,670
,918
,1064
2025 06 26 11:42:42.902587,898
,614
,680
,385
,1129
,1250
,440
,726
,889
,463
,550
,766
,714
,931
2025 06 26 11:42:43.157966,688
,791
,580
,673
,955
,970
,707
,907
,429
,862
,953
,668
,664
,724
2025 06 26 11:42:43.406354,566
,631
,672
,500
,935
,788
,552
,614
,216
,474
,919
,505
,486
,878
2025 06 26 11:42:43.630700,973
,621
,275
,672
,623
,689
,803
,419
,684
,501
,793
,621
,841
,902
2025 06 26 11:42:43.871085,1157
,686
,510
,1033
,434
,930
,900
,770
,1050
,711
,485
,877
,535
,575
2025 06 26 11:42:44.127329,787
,834
,888
,550
,426
,597
,707
,807
,1092
,852
,740
,593
,616
,747
2025 06 26 11:42:44.406692,996
,761
,1008
,814
,972
,993
,795
,660
,631
,911
,668
,688
,1159
,799
2025 06 26 11:42:44.679074,557
,602
,933
,559
,736
,698
,736
,875
,1018
,777
,774
,743
,636
,1208
2025 06 26 11:42:44.951334,654
,822
,907
,867
,886
,935
,1068
,724
,405
,869
,1060
,660
,795
,982
2025 06 26 11:42:45.207689,597
,1069
,505
,885
,855
,1068
,792
,771
,744
,871
,738
,1131
,666
,983
2025 06 26 11:42:45.446988,936
,664
,798
,576
,839
,856
,656
,963
,755
,688
,717
,445
,1022
,640
2025 06 26 11:42:45.671354,958
,755
,525
,875
,803
,721
,1201
,693
,827
,1022
,985
,825
,727
,786
2025 06 26 11:42:45.920651,751
,984
,1024
,980
,667
,734
,415
,766
,488
,827
,921
,828
,660
,720
2025 06 26 11:42:46.176001,925
,681
,762
,881
,845
,944
,686
,742
,1046
,901
,437
,797
,729
,994
2025 06 26 11:42:46.455377,718
,1129
,943
,437
,855
,566
,841
,658
,660
,581
,707
,774
,817
,792
2025 06 26 11:42:46.728669,764
,737
,587
,780
,919
,679
,749
,561
,367
,822
,850
,797
,534
,852
2025 06 26 11:42:46.999999,422
,621
,562
,1021
,1087
,912
,985
,844
,1047
,1087
,880
,927
,907
,632
2025 06 26 11:42:47.256376,890
,777
,958
,714
,650
,842
,719
,487
,310
,635
,870
,620
,718
,483
2025 06 26 11:42:47.496694,813
,485
,1023
,813
,996
,584
,592
,935
,742
,426
,1285
,851
,725
,701
2025 06 26 11:42:49.769826,675
,713
,572
,902
,644
,793
,550
,518
,715
,828
,811
,788
,413
,910
2025 06 26 11:42:50.025160,772
,763
,841
,676
,973
,451
,556
,1059
,931
,580
,859
,190
,989
,627
2025 06 26 11:42:50.282452,754
,829
,468
,1410
,979
,354
,487
,1267
,634
,611
,838
,741
,783
,1111
2025 06 26 11:42:50.561780,998
,851
,995
,612
,991
,734
,746
,543
,519
,800
,875
,539
,506
,759
2025 06 26 11:42:50.834157,550
,910
,671
,863
,424
,725
,456
,656
,846
,642
,448
,597
,930
,929
2025 06 26 11:42:51.098571,827
,558
,910
,383
,813
,853
,315
,337
,628
,1049
,76
,666
,775
,669
2025 06 26 11:42:51.353864,1082
,865
,719
,1178
,700
,694
,806
,626
,816
,766
,705
,661
,1150
,976
2025 06 26 11:42:51.586266,1087
,575
,661
,474
,1007
,579
,807
,706
,255
,607
,528
,926
,981
,841
2025 06 26 11:42:51.818642,210
,616
,897
,812
,825
,833
,887
,157
,828
,1184
,1004
,906
,751
,802
2025 06 26 11:42:52.073943,1295
,697
,881
,857
,1100
,540
,1313
,845
,737
,906
,707
,914
,645
,730
2025 06 26 11:42:52.331267,814
,878
,1159
,795
,779
,952
,996
,815
,1136
,449
,990
,939
,775
,854
2025 06 26 11:42:52.610513,746
,474
,1167
,686
,703
,581
,627
,540
,849
,544
,1004
,471
,458
,1025
2025 06 26 11:42:52.882836,932
,772
,900
,854
,768
,990
,892
,625
,850
,982
,851
,884
,1042
,614
2025 06 26 11:42:53.131116,1209
,642
,882
,660
,875
,884
,605
,864
,929
,923
,840
,835
,1224
,988
2025 06 26 11:42:53.387492,897
,741
,933
,927
,628
,800
,806
,752
,821
,1108
,973
,838
,653
,726
2025 06 26 11:42:53.618868,883
,816
,967
,627
,702
,1053
,702
,864
,542
,830
,898
,745
,1003
,472
2025 06 26 11:42:53.851228,747
,230
,755
,433
,718
,1049
,901
,802
,1252
,652
,638
,814
,726
,662
2025 06 26 11:42:54.107561,651
,888
,885
,717
,1039
,1170
,739
,840
,887
,653
,589
,787
,726
,336
2025 06 26 11:42:54.362903,932
,716
,676
,978
,1037
,1060
,755
,847
,985
,1080
,876
,459
,1089
,346
2025 06 26 11:42:54.636265,659
,937
,872
,890
,830
,677
,999
,536
,955
,739
,960
,622
,805
,755
2025 06 26 11:42:54.915599,792
,776
,841
,1082
,880
,898
,1037
,691
,879
,689
,880
,784
,739
,800
2025 06 26 11:42:55.163884,901
,885
,619
,568
,632
,382
,1087
,918
,647
,435
,1006
,933
,1196
,937
2025 06 26 11:42:55.412208,771
,885
,991
,901
,957
,597
,527
,721
,555
,831
,462
,757
,767
,792
2025 06 26 11:42:55.652489,944
,901
,761
,868
,632
,831
,920
,792
,762
,879
,633
,835
,894
,473
2025 06 26 11:42:55.900845,1142
,747
,864
,586
,1004
,895
,986
,959
,766
,643
,697
,501
,771
,865
2025 06 26 11:42:56.157209,839
,914
,665
,713
,790
,588
,1076
,1151
,704
,696
,619
,853
,892
,618
2025 06 26 11:42:56.429538,915
,569
,672
,1004
,865
,555
,1068
,424
,425
,705
,856
,825
,868
,670
2025 06 26 11:42:56.707921,1180
,1230
,835
,1002
,601
,572
,958
,667
,572
,883
,925
,1253
,518
,924
2025 06 26 11:42:56.981282,1173
,483
,670
,981
,1088
,642
,709
,1050
,813
,921
,1168
,682
,628
,642
2025 06 26 11:42:57.229637,592
,806
,909
,398
,536
,591
,736
,627
,947
,884
,1016
,1190
,733
,800
2025 06 26 11:42:57.469015,431
,832
,976
,943
,546
,759
,644
,725
,793
,592
,586
,1012
,948
,914
2025 06 26 11:42:57.694479,760
,599
,868
,578
,624
,1043
,1071
,996
,1020
,780
,546
,737
,1030
,706
2025 06 26 11:42:57.950670,370
,919
,456
,790
,868
,643
,640
,945
,763
,826
,782
,679
,765
,894
2025 06 26 11:42:58.206010,771
,473
,1141
,388
,690
,999
,1061
,639
,596
,710
,419
,834
,727
,549
2025 06 26 11:42:58.478302,674
,687
,900
,596
,863
,389
,893
,543
,993
,763
,805
,899
,1104
,711
2025 06 26 11:43:00.807485,900
,998
,1171
,1190
,1189
,1118
,1252
,893
,1103
,1088
,1092
,966
,812
,482
2025 06 26 11:43:01.062884,902
,778
,774
,614
,989
,759
,860
,812
,1103
,802
,1214
,850
,818
,810
2025 06 26 11:43:01.303030,1102
,925
,977
,828
,816
,969
,1320
,677
,724
,811
,944
,1180
,1186
,912
2025 06 26 11:43:01.527408,1080
,786
,932
,986
,913
,1051
,1152
,1015
,660
,1253
,858
,955
,982
,544
2025 06 26 11:43:01.775789,1063
,782
,1059
,1225
,916
,958
,1070
,1019
,617
,931
,1224
,1075
,837
,711
2025 06 26 11:43:02.031103,1116
,839
,1138
,955
,524
,889
,946
,895
,381
,950
,834
,962
,830
,1023
2025 06 26 11:43:02.304431,960
,911
,941
,679
,1143
,719
,446
,791
,893
,898
,839
,722
,798
,804
2025 06 26 11:43:02.576807,1169
,480
,754
,483
,684
,773
,897
,648
,930
,1202
,952
,951
,466
,448
2025 06 26 11:43:02.856116,1058
,1045
,456
,832
,660
,572
,1093
,1113
,1038
,678
,726
,1079
,847
,880
2025 06 26 11:43:03.112384,792
,945
,836
,819
,860
,280
,848
,468
,946
,658
,517
,1036
,598
,1036
2025 06 26 11:43:03.352625,956
,579
,1086
,770
,822
,854
,959
,898
,731
,916
,286
,718
,1203
,926
2025 06 26 11:43:03.575948,864
,678
,900
,1080
,1033
,637
,1075
,857
,1004
,854
,647
,682
,639
,685
2025 06 26 11:43:03.824316,786
,650
,199
,719
,922
,996
,462
,895
,617
,932
,793
,1071
,746
,1294
2025 06 26 11:43:04.080626,895
,849
,999
,961
,895
,1171
,876
,979
,763
,993
,640
,1165
,856
,924
2025 06 26 11:43:04.352964,717
,807
,638
,1161
,1054
,729
,434
,605
,748
,1336
,659
,887
,818
,301
2025 06 26 11:43:04.625325,1166
,431
,750
,978
,914
,1509
,880
,901
,1225
,879
,1198
,1012
,869
,480
2025 06 26 11:43:04.905716,1257
,809
,929
,664
,1154
,887
,1023
,556
,986
,588
,1094
,953
,1298
,879
2025 06 26 11:43:05.161094,967
,723
,459
,501
,733
,944
,528
,1156
,610
,612
,716
,829
,1098
,713
2025 06 26 11:43:05.401497,1063
,685
,700
,1081
,803
,619
,1107
,523
,853
,811
,792
,961
,848
,913
2025 06 26 11:43:05.625818,592
,640
,297
,995
,497
,619
,677
,961
,1012
,1342
,945
,1083
,1099
,1124
2025 06 26 11:43:05.881190,1020
,687
,1013
,631
,704
,846
,912
,555
,970
,1180
,666
,1226
,878
,955
2025 06 26 11:43:06.137550,1141
,1033
,981
,708
,685
,871
,1101
,715
,834
,584
,980
,1100
,359
,855
2025 06 26 11:43:06.409874,806
,931
,913
,1448
,935
,586
,861
,536
,404
,1430
,1007
,392
,991
,480
2025 06 26 11:43:06.689262,604
,519
,686
,1018
,933
,505
,1195
,1501
,815
,928
,575
,894
,1009
,876
2025 06 26 11:43:06.938575,356
,832
,741
,597
,741
,609
,658
,945
,811
,850
,707
,890
,1208
,1051
2025 06 26 11:43:07.185947,863
,1179
,1107
,1141
,945
,1078
,907
,560
,1359
,877
,325
,795
,704
,1028
2025 06 26 11:43:07.426219,893
,773
,1134
,775
,871
,979
,629
,905
,887
,1096
,830
,850
,665
,879
2025 06 26 11:43:07.658487,879
,827
,763
,678
,1033
,1293
,1087
,476
,533
,1082
,868
,1012
,958
,936
2025 06 26 11:43:07.913890,1016
,997
,1037
,970
,822
,808
,1044
,806
,1090
,944
,1032
,900
,731
,840
2025 06 26 11:43:08.170251,1093
,1133
,713
,672
,746
,1057
,773
,848
,909
,808
,1205
,810
,938
,1067
2025 06 26 11:43:08.442365,715
,680
,763
,874
,1106
,708
,719
,1133
,1086
,1227
,1297
,1284
,1173
,1036
2025 06 26 11:43:08.715726,691
,866
,1146
,814
,686
,1085
,746
,454
,851
,1176
,873
,832
,540
,510
2025 06 26 11:43:08.970978,935
,1033
,1094
,978
,1012
,1087
,1113
,1201
,1045
,619
,1041
,981
,927
,767
2025 06 26 11:43:09.219292,727
,1096
,1038
,705
,1357
,1068
,696
,1159
,1040
,985
,1116
,231
,15362
2025 06 26 11:43:09.684620,754
,948
,963
,809
,743
,865
,881
,970
,908
,981
,827
,611
,873
,636
2025 06 26 11:43:09.939944,898
,1246
,897
,613
,1006
,823
,1214
,1101
,973
,824
,535
,849
,765
,797
2025 06 26 11:43:10.196380,535
,1343
,960
,1006
,552
,649
,887
,887
,1002
,864
,957
,710
,636
,702
2025 06 26 11:43:10.468719,789
,802
,782
,805
,983
,769
,770
,976
,815
,840
,780
,771
,1118
,658
2025 06 26 11:43:10.747826,872
,1238
,895
,949
,1170
,819
,787
,972
,550
,750
,1085
,1101
,975
,1010
2025 06 26 11:43:11.003196,561
,598
,841
,1132
,929
,1155
,748
,1116
,562
,766
,959
,1062
,874
,738
2025 06 26 11:43:13.277445,969
,755
,1089
,862
,867
,923
,1107
,1117
,813
,1002
,1131
,1359
,884
,964
2025 06 26 11:43:13.509787,846
,687
,1160
,1020
,991
,629
,487
,1254
,277
,671
,964
,889
,571
,776
2025 06 26 11:43:13.749084,892
,1201
,994
,633
,707
,855
,601
,824
,718
,615
,856
,998
,1043
,768
2025 06 26 11:43:14.005350,998
,443
,912
,810
,804
,1061
,1137
,911
,1114
,982
,1087
,624
,1092
,1227
2025 06 26 11:43:14.277673,1114
,606
,780
,959
,755
,922
,1053
,763
,671
,748
,826
,769
,693
,777
2025 06 26 11:43:14.549907,884
,809
,1114
,1004
,697
,1000
,1005
,1049
,510
,663
,502
,998
,847
,696
2025 06 26 11:43:14.806249,860
,844
,1055
,936
,640
,1101
,732
,564
,795
,1143
,570
,660
,920
,878
2025 06 26 11:43:15.062640,900
,856
,893
,919
,862
,786
,1138
,1063
,1046
,735
,667
,903
,831
,902
2025 06 26 11:43:15.294028,673
,1103
,651
,823
,965
,1085
,920
,820
,856
,934
,1050
,1099
,852
,565
2025 06 26 11:43:15.527379,611
,927
,975
,915
,937
,860
,640
,1147
,1050
,834
,799
,854
,700
,569
2025 06 26 11:43:15.963151,725
,1089
,1051
,1072
,1131
,442
,623
,1196
,476
,712
,1112
,1023
,785
,886
2025 06 26 11:43:16.242447,1072
,558
,754
,1075
,557
,373
,971
,826
,654
,560
,827
,778
,925
,909
2025 06 26 11:43:16.515690,759
,861
,659
,772
,812
,843
,1080
,809
,782
,980
,612
,1073
,728
,710
2025 06 26 11:43:16.771919,711
,908
,624
,1057
,971
,1046
,774
,1129
,1113
,1374
,859
,741
,875
,794
2025 06 26 11:43:17.027188,1040
,867
,564
,722
,1023
,786
,734
,725
,991
,594
,736
,854
,668
,1053
2025 06 26 11:43:17.259484,785
,906
,833
,539
,880
,895
,1200
,632
,774
,586
,993
,947
,1137
,644
2025 06 26 11:43:17.492789,539
,865
,876
,332
,831
,1042
,806
,837
,969
,719
,710
,951
,590
,722
2025 06 26 11:43:17.749024,1097
,856
,279
,926
,654
,780
,708
,770
,803
,915
,729
,965
,1189
,844
2025 06 26 11:43:18.012177,1115
,544
,1064
,840
,1003
,926
,654
,623
,690
,613
,657
,1043
,932
,806
2025 06 26 11:43:18.291436,962
,739
,903
,924
,671
,813
,1191
,910
,825
,681
,769
,915
,992
,956
2025 06 26 11:43:18.555700,917
,889
,981
,921
,660
,454
,816
,1010
,1067
,730
,693
,859
,527
,991
2025 06 26 11:43:18.804965,660
,816
,624
,949
,1059
,796
,885
,650
,759
,989
,887
,804
,657
,1082
2025 06 26 11:43:19.052261,941
,1098
,876
,870
,812
,566
,711
,964
,621
,931
,860
,775
,835
,653
2025 06 26 11:43:19.285480,694
,1148
,925
,930
,1124
,745
,710
,1045
,1031
,694
,532
,963
,757
,910
2025 06 26 11:43:19.541737,1047
,1053
,713
,595
,985
,895
,973
,780
,920
,782
,1107
,1165
,841
,1160
2025 06 26 11:43:19.797904,1089
,483
,1201
,819
,654
,1027
,649
,846
,821
,703
,844
,17
,2562
2025 06 26 11:43:20.340093,714
,697
,926
,815
,1012
,1186
,1038
,940
,779
,514
,938
,1624
,566
,153
2025 06 26 11:43:20.604297,731
,1013
,852
,955
,691
,727
,1326
,781
,726
,558
,838
,767
,456
,851
2025 06 26 11:43:20.853611,881
,786
,216
,962
,593
,1022
,927
,852
,533
,974
,920
,512
,1134
,701
2025 06 26 11:43:21.093970,1003
,537
,992
,893
,837
,560
,862
,1034
,851
,1231
,795
,510
,1184
,691
2025 06 26 11:43:21.317273,874
,528
,527
,989
,817
,857
,847
,1019
,916
,642
,887
,795
,768
,878
2025 06 26 11:43:21.573535,660
,513
,974
,568
,580
,675
,761
,1236
,852
,576
,982
,911
,752
,1135
2025 06 26 11:43:21.837900,1157
,718
,774
,641
,1029
,447
,1064
,1043
,660
,390
,988
,629
,964
,843
2025 06 26 11:43:22.110128,628
,1047
,1047
,1057
,977
,726
,840
,1052
,1371
,587
,808
,1163
,752
,617
2025 06 26 11:43:22.389486,845
,927
,750
,855
,733
,691
,838
,993
,1003
,512
,704
,783
,897
,1093
2025 06 26 11:43:22.654723,713
,870
,608
,733
,1103
,703
,1018
,411
,565
,670
,736
,537
,984
,1090
2025 06 26 11:43:22.903041,594
,986
,1175
,1050
,799
,884
,1159
,1262
,411
,967
,892
,733
,643
,455
2025 06 26 11:43:23.134352,750
,937
,780
,1182
,852
,857
,850
,1271
,1049
,1137
,927
,971
,1025
,799
2025 06 26 11:43:23.366729,1159
,929
,684
,949
,846
,1130
,827
,950
,415
,848
,1179
,1095
,608
,665
2025 06 26 11:43:25.671982,828
,519
,697
,588
,633
,852
,1027
,650
,792
,1058
,927
,896
,979
,786
2025 06 26 11:43:25.935215,781
,1022
,630
,706
,1126
,762
,941
,1059
,1151
,832
,650
,764
,872
,809
2025 06 26 11:43:26.208520,819
,780
,1007
,877
,498
,1043
,574
,1045
,700
,921
,1017
,777
,898
,1210
2025 06 26 11:43:26.480689,1310
,1114
,1180
,999
,716
,396
,545
,846
,502
,834
,1068
,1234
,704
,782
2025 06 26 11:43:26.729006,833
,818
,858
,995
,688
,595
,906
,809
,1328
,882
,978
,877
,831
,345
2025 06 26 11:43:26.976349,1105
,757
,792
,757
,871
,862
,1173
,863
,521
,836
,845
,705
,701
,872
2025 06 26 11:43:27.200656,621
,1101
,1155
,556
,792
,1014
,707
,992
,1115
,852
,876
,1029
,840
,819
2025 06 26 11:43:27.456954,889
,1020
,900
,775
,692
,922
,646
,878
,710
,683
,559
,840
,821
,964
2025 06 26 11:43:27.712312,1200
,1158
,1384
,883
,609
,533
,583
,711
,312
,925
,1147
,900
,824
,817
2025 06 26 11:43:27.984637,730
,995
,881
,613
,802
,1255
,808
,1020
,855
,1128
,462
,532
,1041
,993
2025 06 26 11:43:28.258018,672
,891
,807
,1057
,723
,1066
,793
,1003
,849
,920
,806
,774
,996
,784
2025 06 26 11:43:28.529275,624
,794
,825
,835
,1035
,484
,720
,452
,751
,868
,639
,1202
,815
,971
2025 06 26 11:43:28.777602,985
,998
,1087
,799
,707
,691
,958
,809
,1056
,746
,690
,873
,642
,1120
2025 06 26 11:43:29.017954,835
,882
,364
,1024
,813
,904
,957
,681
,1174
,925
,1099
,666
,1081
,744
2025 06 26 11:43:29.249242,942
,1352
,1050
,737
,468
,1085
,1171
,1214
,1007
,944
,883
,892
,736
,1198
2025 06 26 11:43:29.505728,887
,1156
,1033
,537
,632
,506
,1023
,868
,913
,574
,652
,332
,608
,736
2025 06 26 11:43:29.761923,721
,764
,472
,648
,794
,785
,565
,1321
,619
,905
,892
,518
,995
,773
2025 06 26 11:43:30.033160,835
,1205
,815
,745
,772
,1272
,838
,1040
,934
,970
,793
,985
,1049
,726
2025 06 26 11:43:30.306477,1133
,737
,684
,763
,548
,1073
,445
,1008
,441
,991
,851
,922
,847
,749
2025 06 26 11:43:30.562807,1058
,987
,988
,831
,238
,1154
,796
,1005
,718
,707
,1021
,610
,950
,797
2025 06 26 11:43:30.810121,823
,1260
,937
,690
,325
,709
,662
,478
,1115
,751
,983
,815
,709
,699
2025 06 26 11:43:31.034447,1147
,800
,769
,696
,908
,726
,1056
,1004
,919
,1131
,549
,839
,863
,1120
2025 06 26 11:43:31.275722,714
,662
,836
,1243
,664
,1343
,942
,838
,957
,891
,875
,1339
,644
,1309
2025 06 26 11:43:31.531081,942
,543
,484
,552
,699
,703
,954
,659
,856
,667
,504
,247
,965
,654
2025 06 26 11:43:31.810453,586
,657
,906
,915
,920
,777
,1127
,796
,527
,693
,819
,584
,958
,853
2025 06 26 11:43:32.083717,903
,695
,818
,801
,1016
,906
,933
,707
,924
,942
,707
,923
,1163
,743
2025 06 26 11:43:32.356045,750
,910
,999
,989
,790
,1063
,773
,855
,1159
,1013
,995
,1091
,830
,876
2025 06 26 11:43:32.611369,1122
,636
,893
,1020
,551
,1206
,1018
,1162
,1383
,736
,1224
,807
,893
,1247
2025 06 26 11:43:32.851744,913
,1201
,1322
,1110
,975
,1113
,642
,1016
,864
,714
,669
,808
,797
,783
2025 06 26 11:43:33.083073,833
,556
,1012
,583
,660
,487
,815
,509
,901
,892
,606
,1105
,938
,606
2025 06 26 11:43:33.324589,911
,573
,1136
,603
,798
,802
,1019
,1068
,847
,1014
,822
,904
,1006
,1056
2025 06 26 11:43:33.580714,814
,561
,620
,1044
,1054
,1085
,942
,934
,811
,633
,558
,707
,963
,779
2025 06 26 11:43:33.853049,743
,676
,856
,820
,767
,617
,821
,594
,953
,413
,888
,839
,644
,1031
2025 06 26 11:43:34.132336,1245
,770
,861
,1233
,966
,915
,853
,897
,951
,786
,1001
,915
,565
,1019
2025 06 26 11:43:34.388637,1032
,500
,841
,715
,864
,946
,734
,810
,1112
,665
,1212
,1393
,599
,942
2025 06 26 11:43:36.685745,757
,862
,615
,968
,582
,872
,1038
,938
,1020
,974
,1314
,570
,1411
,503
2025 06 26 11:43:36.918047,242
,755
,667
,831
,808
,549
,929
,375
,625
,649
,872
,697
,419
,1211
2025 06 26 11:43:37.157446,994
,806
,1131
,571
,847
,119
,1102
,1141
,402
,1385
,890
,890
,911
,920
2025 06 26 11:43:37.413823,494
,845
,1060
,702
,1137
,878
,1067
,601
,997
,1036
,1408
,658
,980
,732
2025 06 26 11:43:37.678155,663
,1217
,957
,1075
,638
,862
,752
,622
,736
,1074
,848
,749
,1000
,735
2025 06 26 11:43:37.950651,936
,711
,919
,941
,986
,596
,1038
,921
,660
,881
,620
,1219
,394
,1138
2025 06 26 11:43:38.214871,663
,1358
,1041
,757
,1056
,635
,639
,456
,1118
,664
,873
,1280
,997
,464
2025 06 26 11:43:38.462139,659
,1460
,1020
,566
,854
,965
,405
,975
,984
,877
,942
,737
,1126
,892
2025 06 26 11:43:38.702531,1108
,1034
,627
,680
,1350
,860
,918
,1043
,1176
,719
,622
,716
,728
,671
2025 06 26 11:43:38.934816,788
,854
,669
,873
,955
,908
,1225
,813
,650
,1089
,985
,900
,1142
,426
2025 06 26 11:43:39.190192,794
,759
,813
,921
,731
,1072
,458
,971
,986
,872
,772
,943
,299
,444
2025 06 26 11:43:39.446528,731
,605
,861
,917
,966
,871
,1010
,729
,960
,1084
,798
,656
,613
,1201
2025 06 26 11:43:39.718913,1018
,878
,772
,580
,1037
,918
,873
,814
,644
,1062
,572
,1034
,1033
,914
2025 06 26 11:43:39.992051,859
,893
,718
,1195
,1009
,684
,273
,580
,856
,800
,1137
,1091
,1110
,937
2025 06 26 11:43:40.263403,1026
,1177
,1038
,894
,957
,607
,708
,150
,689
,873
,802
,1105
,1007
,855
2025 06 26 11:43:40.511658,776
,504
,778
,345
,693
,773
,709
,1099
,1058
,1175
,975
,939
,940
,995
2025 06 26 11:43:40.751866,1298
,1059
,862
,953
,1046
,772
,911
,1051
,809
,1104
,1209
,702
,663
,1118
2025 06 26 11:43:40.983198,1079
,1012
,804
,806
,952
,647
,715
,766
,1005
,513
,838
,696
,914
,1147
2025 06 26 11:43:41.239492,752
,938
,733
,697
,1138
,857
,941
,448
,1049
,1076
,1020
,978
,1007
,583
2025 06 26 11:43:41.495872,791
,964
,641
,1100
,1221
,772
,1128
,1135
,1014
,954
,1166
,101
2025 06 26 11:43:42.040292,746
,897
,893
,749
,415
,875
,852
,582
,945
,672
,766
,1048
,922
,1166
2025 06 26 11:43:42.296586,960
,901
,903
,870
,780
,934
,1016
,814
,1103
,557
,492
,607
,886
,835
2025 06 26 11:43:42.544913,788
,1083
,677
,752
,986
,586
,1033
,1011
,555
,559
,983
,484
,433
,575
2025 06 26 11:43:42.768241,898
,1061
,1091
,1015
,864
,262
,688
,706
,744
,990
,729
,950
,784
,873
2025 06 26 11:43:43.009545,821
,912
,961
,710
,786
,781
,413
,1009
,491
,1290
,466
,956
,1031
,1120
2025 06 26 11:43:43.265709,667
,1051
,728
,738
,633
,814
,692
,870
,952
,909
,1118
,818
,821
,872
2025 06 26 11:43:43.544091,872
,340
,888
,995
,1180
,847
,928
,721
,1027
,1281
,781
,1112
,680
,764
2025 06 26 11:43:43.817397,1104
,972
,801
,783
,889
,969
,877
,783
,1137
,928
,1045
,959
,780
,684
2025 06 26 11:43:44.089475,1035
,961
,410
,1089
,666
,1222
,627
,880
,975
,874
,1140
,816
,949
,1114
2025 06 26 11:43:44.337680,822
,729
,1187
,1072
,989
,735
,783
,926
,1077
,956
,835
,840
,1035
,1056
2025 06 26 11:43:44.585969,496
,634
,762
,653
,812
,772
,1149
,492
,1295
,738
,975
,654
,1056
,1122
2025 06 26 11:43:44.825125,772
,1079
,790
,565
,523
,1091
,834
,922
,640
,1089
,720
,748
,790
,835
2025 06 26 11:43:45.081314,703
,914
,761
,325
,702
,792
,668
,812
,613
,808
,609
,711
,1110
,649
2025 06 26 11:43:45.345619,784
,867
,543
,799
,387
,656
,721
,1140
,974
,630
,281
,601
,1319
,421
2025 06 26 11:43:45.618947,578
,531
,652
,762
,808
,870
,623
,855
,756
,925
,692
,846
,677
,427
2025 06 26 11:43:45.890272,543
,807
,724
,617
,805
,991
,842
,800
,815
,1110
,894
,1181
,816
,727
2025 06 26 11:43:46.161519,939
,1165
,765
,1131
,995
,1191
,613
,789
,1114
,951
,915
,1129
,785
,1070
2025 06 26 11:43:46.402881,995
,1046
,770
,1152
,527
,1078
,884
,827
,862
,985
,721
,695
,797
,1231
2025 06 26 11:43:46.634079,873
,982
,937
,1214
,1030
,972
,503
,947
,1051
,928
,1047
,798
,628
,623
2025 06 26 11:43:46.874316,901
,569
,1078
,686
,758
,750
,600
,1242
,533
,671
,940
,828
,879
,1032
2025 06 26 11:43:49.164318,966
,356
,1043
,738
,997
,859
,781
,1006
,803
,857
,891
,1007
,1053
,859
2025 06 26 11:43:49.443593,870
,930
,830
,735
,918
,902
,1017
,824
,870
,457
,927
,845
,756
,944
2025 06 26 11:43:49.716865,1158
,572
,758
,796
,1180
,1087
,790
,879
,1003
,1101
,1033
,988
,1027
,1053
2025 06 26 11:43:49.980056,897
,873
,909
,893
,926
,1000
,1148
,945
,691
,585
,747
,739
,907
,689
2025 06 26 11:43:50.236379,949
,856
,508
,787
,848
,784
,420
,756
,585
,983
,719
,963
,867
,773
2025 06 26 11:43:50.468680,847
,727
,878
,786
,802
,992
,1004
,1081
,658
,917
,786
,495
,670
,816
2025 06 26 11:43:50.700965,314
,751
,429
,689
,883
,1063
,720
,1052
,616
,668
,474
,793
,612
,890
2025 06 26 11:43:50.956297,906
,1085
,447
,872
,876
,832
,820
,519
,1022
,733
,843
,696
,1187
,873
2025 06 26 11:43:51.213678,477
,933
,817
,751
,1009
,1120
,675
,501
,730
,617
,1211
,859
,572
,870
2025 06 26 11:43:51.492870,903
,603
,596
,1121
,911
,801
,635
,1203
,900
,649
,1158
,972
,1032
,677
2025 06 26 11:43:51.765126,633
,1049
,833
,805
,1088
,920
,1201
,1068
,1124
,1367
,732
,687
,784
,1108
2025 06 26 11:43:52.013420,906
,913
,803
,873
,663
,507
,1026
,959
,947
,1001
,1246
,1038
,595
,775
2025 06 26 11:43:52.261574,995
,565
,954
,961
,994
,686
,989
,871
,1089
,398
,955
,1033
,782
,1178
2025 06 26 11:43:52.485791,678
,831
,854
,978
,999
,1156
,1128
,940
,1055
,661
,866
,743
,855
,979
2025 06 26 11:43:52.734074,879
,837
,1168
,1070
,865
,789
,669
,882
,745
,858
,678
,1191
,732
,838
2025 06 26 11:43:52.990428,813
,906
,880
,1369
,775
,1081
,700
,803
,893
,1103
,1506
,922
,1206
,846
2025 06 26 11:43:53.262615,1034
,1259
,720
,1082
,492
,1099
,710
,811
,730
,1043
,399
,877
,1180
,782
2025 06 26 11:43:53.541861,1091
,948
,902
,643
,846
,1036
,1229
,719
,944
,1086
,535
,826
,1121
,803
2025 06 26 11:43:53.814115,797
,1053
,899
,907
,1003
,807
,929
,582
,1141
,687
,1035
,1013
,943
,836
2025 06 26 11:43:54.062408,941
,919
,964
,690
,925
,901
,872
,889
,947
,892
,864
,1032
,1157
,1027
2025 06 26 11:43:54.302607,761
,787
,770
,899
,1006
,1201
,925
,1032
,711
,868
,588
,864
,711
,720
2025 06 26 11:43:54.534828,1062
,900
,860
,968
,754
,1038
,770
,895
,928
,915
,883
,829
,988
,665
2025 06 26 11:43:54.783223,1037
,686
,992
,849
,843
,840
,1053
,906
,794
,1089
,814
,1041
,897
,889
2025 06 26 11:43:55.039258,732
,863
,531
,690
,843
,805
,505
,1081
,830
,1057
,983
,1032
,776
,639
2025 06 26 11:43:55.311492,856
,690
,646
,629
,418
,819
,674
,1131
,987
,972
,587
,1088
,647
,651
2025 06 26 11:43:55.590907,365
,1047
,603
,622
,755
,1077
,970
,999
,1084
,433
,920
,655
,1238
,418
2025 06 26 11:43:55.839102,1001
,788
,1031
,1210
,491
,542
,870
,842
,866
,1300
,901
,692
,582
,797
2025 06 26 11:43:56.087370,1310
,545
,767
,966
,957
,1199
,950
,1015
,1081
,782
,1172
,597
,957
,602
2025 06 26 11:43:56.319650,613
,691
,837
,512
,733
,967
,578
,734
,858
,810
,920
,997
,540
,887
2025 06 26 11:43:56.559927,865
,787
,865
,561
,1103
,1257
,993
,817
,918
,889
,606
,977
,832
,878
2025 06 26 11:43:56.815192,1003
,1102
,932
,840
,1007
,838
,732
,848
,789
,866
,778
,939
,629
,439
2025 06 26 11:43:57.079431,1029
,871
,878
,1121
,1031
,686
,891
,553
,886
,903
,720
,958
,1164
,766
2025 06 26 11:43:57.352639,655
,816
,1021
,1142
,920
,799
,1183
,907
,592
,903
,906
,694
,857
,874
2025 06 26 11:43:57.616118,663
,280
,757
,822
,722
,882
,1087
,803
,763
,1100
,939
,1035
,768
,835
2025 06 26 11:43:57.872216,1183
,1123
,752
,807
,1046
,796
,866
,799
,912
,985
,977
,973
,1159
,1115
2025 06 26 11:44:00.153286,803
,1283
,852
,999
,872
,1012
,684
,715
,896
,772
,963
,723
,1192
,822
2025 06 26 11:44:00.401440,842
,1130
,742
,920
,857
,655
,788
,927
,1038
,787
,1263
,626
,651
,1050
2025 06 26 11:44:00.657698,865
,837
,740
,550
,976
,868
,784
,1006
,1085
,1271
,921
,1074
,773
,1167
2025 06 26 11:44:00.921958,735
,793
,931
,980
,511
,837
,1006
,715
,699
,844
,723
,1198
,1101
,1005
2025 06 26 11:44:01.194314,848
,1075
,1022
,735
,812
,836
,776
,536
,959
,586
,1294
,779
,782
,884
2025 06 26 11:44:01.466381,737
,695
,1198
,547
,893
,1025
,1141
,948
,500
,893
,683
,803
,742
,660
2025 06 26 11:44:01.714654,679
,730
,872
,969
,435
,828
,626
,731
,872
,948
,937
,977
,1100
,549
2025 06 26 11:44:01.962981,996
,523
,731
,481
,692
,1140
,914
,1103
,995
,669
,1173
,1185
,982
,770
2025 06 26 11:44:02.202172,951
,869
,1065
,1028
,971
,670
,837
,749
,724
,933
,827
,847
,990
,541
2025 06 26 11:44:02.458446,454
,1065
,498
,743
,962
,808
,1004
,832
,885
,652
,625
,705
,589
,1035
2025 06 26 11:44:02.714807,834
,1008
,1108
,784
,803
,980
,1112
,493
,1020
,1041
,1031
,1050
,1024
,1201
2025 06 26 11:44:02.987983,653
,1064
,1011
,1097
,1063
,783
,775
,769
,827
,507
,634
,1032
,695
,863
2025 06 26 11:44:03.267044,860
,898
,617
,530
,824
,874
,1297
,627
,695
,794
,1173
,631
,850
,840
2025 06 26 11:44:03.507392,1008
,1086
,1096
,925
,1074
,1210
,1090
,954
,647
,1204
,1217
,517
,838
,759
2025 06 26 11:44:03.763618,750
,1259
,1135
,536
,988
,656
,907
,778
,1083
,891
,666
,889
,821
,834
2025 06 26 11:44:03.987877,766
,648
,740
,594
,1080
,831
,557
,826
,1016
,920
,886
,917
,715
,636
2025 06 26 11:44:04.235300,977
,662
,1185
,777
,1096
,796
,773
,630
,867
,627
,630
,682
,742
,581
2025 06 26 11:44:04.491604,731
,701
,587
,925
,1223
,1110
,1128
,963
,933
,641
,565
,896
,814
,892
2025 06 26 11:44:04.755732,631
,739
,774
,730
,662
,820
,779
,791
,873
,663
,961
,776
,840
,778
2025 06 26 11:44:05.028871,965
,898
,1102
,681
,676
,787
,877
,874
,628
,696
,920
,1077
,1018
,760
2025 06 26 11:44:05.292310,879
,682
,702
,881
,1021
,15107
,35586
,10242
,47874
,6143
,0
,49841
,951
2025 06 27 05:52:15.960728,959
,987
,689
,776
,910
,973
,1055
,957
,760
,909
,195
,41219
2025 06 26 11:44:06.193543,872
,934
,641
,1085
,982
,1069
,1014
,1162
,700
,757
,1158
,832
,672
,963
2025 06 26 11:44:06.448798,1090
,708
,1048
,775
,931
,561
,792
,587
,815
,765
,954
,712
,654
,883
2025 06 26 11:44:06.705114,871
,1254
,758
,1094
,983
,969
,1053
,753
,1099
,947
,1012
,1015
,940
,768
2025 06 26 11:44:06.977385,770
,830
,1156
,796
,631
,978
,907
,610
,570
,1165
,787
,1057
,985
,982
2025 06 26 11:44:07.256706,986
,885
,651
,983
,1054
,781
,784
,761
,553
,815
,1023
,573
,1194
,829
2025 06 26 11:44:07.528941,747
,728
,812
,1044
,722
,998
,873
,951
,1168
,1034
,764
,838
,879
,638
2025 06 26 11:44:07.777196,669
,700
,614
,534
,671
,1130
,506
,786
,1198
,828
,1034
,1025
,445
,856
2025 06 26 11:44:08.017432,544
,727
,895
,1032
,933
,1129
,1063
,772
,877
,1125
,1266
,866
,741
,1319
2025 06 26 11:44:08.265604,551
,799
,987
,821
,873
,835
,737
,888
,916
,1070
,527
,858
,795
,616
2025 06 26 11:44:08.520833,719
,1327
,518
,1023
,835
,1104
,696
,895
,931
,1024
,441
,1050
,943
,936
2025 06 26 11:44:08.794086,815
,1450
,709
,877
,567
,1249
,680
,840
,1262
,1164
,723
,808
,758
,644
2025 06 26 11:44:09.066692,754
,1024
,963
,794
,473
,1039
,1193
,847
,1058
,782
,669
,989
,926
,931
2025 06 26 11:44:09.345537,1238
,1245
,776
,1048
,666
,780
,481
,887
,871
,884
,727
,490
,643
,804
2025 06 26 11:44:09.585799,770
,932
,929
,485
,1241
,775
,1008
,461
,529
,962
,914
,1304
,958
,922
2025 06 26 11:44:09.833980,989
,763
,763
,993
,851
,702
,796
,1002
,814
,1049
,915
,1057
,1168
,356
2025 06 26 11:44:10.075302,1331
,827
,604
,768
,911
,363
,865
,979
,759
,748
,822
,502
,991
,810
2025 06 26 11:44:10.331728,752
,949
,975
,968
,587
,829
,613
,573
,970
,651
,872
,862
,936
,881
2025 06 26 11:44:10.586889,890
,402
,799
,865
,618
,871
,957
,750
,766
,1044
,1217
,906
,1033
,771
2025 06 26 11:44:10.859093,814
,568
,1006
,697
,1225
,542
,1003
,1086
,1082
,546
,1004
,567
,769
,937
2025 06 26 11:44:11.138394,826
,707
,1010
,967
,1087
,785
,1195
,883
,698
,1020
,674
,951
,997
,805
2025 06 26 11:44:13.420457,907
,1135
,1040
,568
,741
,994
,667
,830
,678
,429
,731
,1053
,1037
,799
2025 06 26 11:44:13.659748,1081
,1012
,1078
,816
,1045
,1096
,816
,614
,540
,632
,1067
,546
,670
,1044
2025 06 26 11:44:13.884079,859
,891
,748
,757
,992
,963
,586
,620
,1113
,1197
,882
,731
,767
,806
2025 06 26 11:44:14.140388,992
,1304
,702
,680
,1052
,1144
,963
,667
,872
,787
,720
,1100
,1029
,950
2025 06 26 11:44:14.397638,812
,612
,1165
,922
,1093
,792
,943
,892
,759
,982
,663
,842
,817
,685
2025 06 26 11:44:14.675971,1054
,825
,733
,856
,1074
,866
,972
,918
,662
,1161
,1315
,753
,999
,1046
2025 06 26 11:44:14.949330,928
,1050
,1011
,914
,950
,925
,1416
,634
,953
,954
,630
,947
,989
,835
2025 06 26 11:44:15.197607,852
,831
,810
,719
,710
,916
,928
,970
,802
,1256
,885
,1054
,789
,858
2025 06 26 11:44:15.444944,1045
,1027
,228
,613
,947
,870
,1004
,813
,790
,511
,838
,952
,883
,979
2025 06 26 11:44:15.669196,716
,984
,759
,847
,931
,1017
,251
,1022
,673
,947
,931
,666
,848
,851
2025 06 26 11:44:15.917481,854
,783
,838
,598
,1035
,939
,940
,557
,792
,730
,686
,1059
,495
,1201
2025 06 26 11:44:16.173708,851
,623
,718
,725
,806
,1544
,655
,814
,1098
,909
,1052
,867
,815
,807
2025 06 26 11:44:16.437950,1022
,1127
,890
,937
,664
,546
,903
,861
,1131
,1291
,1416
,347
,970
,643
2025 06 26 11:44:16.710352,948
,772
,1030
,848
,875
,908
,983
,1164
,790
,793
,1200
,729
,1046
,894
2025 06 26 11:44:16.981440,880
,1006
,318
,1251
,298
,173
,1086
,462
,299
,518
,993
,1136
,1108
,862
2025 06 26 11:44:17.222667,1115
,832
,893
,1083
,808
,813
,1185
,796
,823
,940
,483
,866
,613
,992
2025 06 26 11:44:17.461928,1366
,1032
,864
,1025
,982
,779
,823
,641
,1228
,1090
,1044
,1345
,1260
,899
2025 06 26 11:44:17.694090,793
,606
,712
,1164
,1425
,717
,833
,756
,1169
,1053
,1183
,1188
,935
,896
2025 06 26 11:44:17.950407,974
,771
,932
,1044
,836
,1345
,896
,717
,1009
,635
,637
,970
,1236
,1081
2025 06 26 11:44:18.214684,792
,577
,720
,1205
,845
,944
,446
,1132
,1105
,425
,867
,1144
,868
,992
2025 06 26 11:44:18.487016,1053
,1011
,988
,1354
,925
,835
,1051
,915
,791
,806
,595
,602
,819
,766
2025 06 26 11:44:18.751321,621
,681
,797
,507
,952
,769
,871
,648
,833
,1030
,690
,827
,1048
,685
2025 06 26 11:44:19.007519,836
,911
,1149
,773
,1151
,748
,679
,842
,699
,1162
,911
,781
,743
,826
2025 06 26 11:44:19.247734,568
,1148
,602
,1160
,815
,1085
,949
,966
,941
,1047
,936
,681
,554
,810
2025 06 26 11:44:19.471034,758
,918
,673
,902
,728
,953
,1238
,579
,886
,888
,796
,1011
,1125
,810
2025 06 26 11:44:19.720357,1002
,744
,659
,504
,879
,484
,806
,908
,1007
,880
,1236
,803
,1136
,944
2025 06 26 11:44:19.976686,1038
,954
,949
,979
,1003
,742
,1025
,687
,856
,718
,966
,781
,772
,513
2025 06 26 11:44:20.254754,923
,1017
,975
,676
,815
,898
,694
,974
,737
,865
,991
,977
,971
,813
2025 06 26 11:44:20.528132,812
,643
,879
,1100
,681
,688
,686
,706
,989
,1168
,999
,918
,304
,1010
2025 06 26 11:44:20.800433,787
,863
,1085
,961
,1406
,757
,930
,1035
,406
,1082
,835
,1114
,795
,622
2025 06 26 11:44:21.048715,740
,742
,696
,881
,904
,821
,1048
,1322
,1071
,1122
,480
,967
,677
,939
2025 06 26 11:44:21.296005,829
,827
,737
,836
,974
,1077
,916
,950
,1304
,1020
,824
,540
,764
,692
2025 06 26 11:44:22.834684,864
,718
,1028
,799
,510
,825
,1169
,521
,1062
,658
,547
,794
,1031
,513
2025 06 26 11:44:23.090771,795
,390
,1143
,944
,1357
,715
,1306
,884
,843
,1036
,843
,629
,560
,848
2025 06 26 11:44:23.355974,865
,859
,913
,670
,759
,1065
,818
,748
,813
,1198
,353
,782
,876
,929
2025 06 26 11:44:23.628198,831
,534
,541
,519
,873
,645
,859
,401
,384
,780
,863
,1055
,1011
,739
2025 06 26 11:44:23.891406,614
,623
,1199
,1062
,843
,822
,953
,856
,766
,528
,844
,1079
,911
,949
2025 06 26 11:44:24.139685,962
,1046
,946
,1004
,934
,707
,681
,963
,472
,917
,1199
,861
,1149
,1135
2025 06 26 11:44:24.379970,660
,1035
,540
,950
,1237
,771
,1036
,1031
,914
,985
,1008
,1378
,1310
,675
2025 06 26 11:44:24.612023,1048
,891
,1001
,623
,823
,471
,812
,857
,1229
,1002
,819
,997
,885
,672
2025 06 26 11:44:24.868294,828
,898
,612
,1020
,718
,542
,737
,917
,945
,769
,1135
,985
,937
,764
2025 06 26 11:44:25.123579,833
,844
,635
,902
,860
,742
,717
,612
,911
,926
,929
,953
,631
,922
2025 06 26 11:44:25.395886,805
,486
,997
,1069
,831
,694
,1422
,963
,1195
,1023
,816
,928
,813
,1081
2025 06 26 11:44:25.669192,832
,628
,766
,766
,612
,528
,739
,896
,675
,889
,1117
,1205
,656
,851
2025 06 26 11:44:25.924510,490
,891
,769
,594
,483
,1156
,798
,954
,875
,848
,1076
,970
,806
,1054
2025 06 26 11:44:26.172781,921
,931
,960
,1142
,1015
,1171
,1326
,500
,1037
,878
,843
,737
,891
,450
2025 06 26 11:44:26.397091,933
,1013
,964
,802
,916
,883
,751
,1162
,765
,421
,901
,670
,672
,819
2025 06 26 11:44:26.637361,860
,612
,998
,1072
,676
,549
,794
,730
,870
,637
,1010
,1159
,1067
,1297
2025 06 26 11:44:26.893704,1163
,746
,1078
,927
,901
,612
,499
,878
,1070
,1002
,753
,807
,972
,812
2025 06 26 11:44:27.158017,594
,950
,814
,915
,761
,809
,1068
,690
,539
,1006
,806
,866
,857
,691
2025 06 26 11:44:27.436377,808
,699
,846
,979
,946
,966
,677
,1180
,856
,978
,850
,1194
,993
,938
2025 06 26 11:44:27.709706,778
,1048
,605
,653
,1135
,564
,1105
,722
,672
,806
,888
,816
,1092
,920
2025 06 26 11:44:27.965955,480
,707
,1250
,768
,838
,439
,1102
,711
,1172
,634
,799
,992
,1100
,316
2025 06 26 11:44:28.222181,1101
,926
,769
,1276
,1342
,1148
,1192
,674
,733
,1261
,1102
,1057
,373
,756
2025 06 26 11:44:28.453461,1251
,958
,1058
,1015
,781
,956
,834
,617
,1091
,687
,778
,820
,824
,648
2025 06 26 11:44:28.709695,1305
,684
,608
,417
,1166
,434
,984
,1361
,654
,1042
,1010
,697
,962
,1199
2025 06 26 11:44:28.974015,806
,1176
,725
,908
,1357
,1194
,1261
,1260
,478
,1007
,1196
,678
,992
,839
2025 06 26 11:44:29.246383,690
,452
,716
,636
,1028
,1102
,717
,1062
,1090
,954
,693
,1097
,500
,1151
2025 06 26 11:44:29.518666,899
,816
,737
,727
,709
,790
,857
,978
,1004
,512
,787
,812
,606
,832
2025 06 26 11:44:29.782935,1356
,1435
,831
,760
,912
,472
,935
,705
,740
,739
,762
,1136
,722
,644
2025 06 26 11:44:30.031251,1019
,656
,899
,888
,713
,810
,902
,966
,698
,610
,636
,617
,1196
,896
2025 06 26 11:44:30.263544,748
,772
,1131
,656
,550
,721
,816
,994
,799
,957
,1116
,948
,694
,743
2025 06 26 11:44:30.502810,1109
,680
,1016
,1027
,857
,1077
,770
,746
,1127
,1125
,960
,938
,988
,569
2025 06 26 11:44:30.759025,803
,1234
,923
,939
,775
,1048
,544
,866
,828
,902
,792
,950
,653
,974
2025 06 26 11:44:31.022335,636
,663
,811
,817
,797
,360
,818
,994
,776
,874
,1059
,1026
,729
,710
2025 06 26 11:44:31.295523,953
,972
,1018
,1322
,835
,579
,692
,636
,813
,815
,1197
,1015
,872
,1032
2025 06 26 11:44:31.559778,694
,950
,438
,987
,379
,983
,801
,992
,1019
,852
,867
,939
,723
,1030
2025 06 26 11:44:31.816059,579
,738
,1019
,1199
,537
,637
,926
,1270
,1175
,976
,1043
,1137
,818
,1061
2025 06 26 11:44:34.065121,883
,849
,691
,818
,1098
,1108
,826
,1293
,914
,1130
,1487
,676
,1108
,711
2025 06 26 11:44:34.312378,700
,1034
,761
,836
,642
,537
,893
,972
,964
,889
,762
,956
,534
,1326
2025 06 26 11:44:34.568660,1060
,919
,959
,599
,727
,709
,810
,980
,764
,1240
,607
,1045
,795
,914
2025 06 26 11:44:34.833990,678
,930
,900
,880
,492
,786
,1298
,743
,1028
,921
,1089
,649
,887
,758
2025 06 26 11:44:35.106231,855
,967
,1082
,907
,868
,1031
,990
,948
,1247
,875
,666
,1171
,1287
,561
2025 06 26 11:44:35.376427,376
,787
,898
,618
,601
,1253
,768
,909
,790
,696
,703
,712
,732
,1091
2025 06 26 11:44:35.617691,1139
,725
,1368
,384
,1090
,993
,524
,1376
,751
,1011
,785
,1152
,743
,1080
2025 06 26 11:44:35.857943,648
,860
,586
,521
,824
,910
,934
,768
,872
,1254
,1104
,898
,667
,765
2025 06 26 11:44:36.090182,1002
,604
,793
,646
,866
,734
,1226
,900
,870
,665
,1018
,812
,702
,1035
2025 06 26 11:44:36.345448,657
,639
,1100
,1095
,834
,1072
,943
,629
,865
,1059
,1063
,996
,1060
,924
2025 06 26 11:44:36.601744,799
,1107
,525
,1024
,813
,689
,955
,1020
,915
,1054
,780
,663
,747
,939
2025 06 26 11:44:36.873934,388
,631
,815
,943
,520
,569
,920
,1149
,1371
,1157
,717
,1040
,1213
,608
2025 06 26 11:44:37.147216,1278
,1016
,916
,791
,1136
,950
,954
,1026
,804
,821
,1226
,832
,860
,886
2025 06 26 11:44:37.418489,616
,1251
,1004
,725
,1017
,1066
,1317
,796
,803
,1103
,745
,986
,731
,1125
2025 06 26 11:44:37.666814,1173
,483
,706
,1193
,986
,784
,671
,794
,1388
,1414
,904
,865
,827
,1334
2025 06 26 11:44:37.907132,1145
,748
,665
,846
,596
,1021
,585
,818
,1027
,224
,957
,929
,925
,1012
2025 06 26 11:44:38.155414,956
,733
,630
,718
,726
,930
,964
,1141
,784
,887
,816
,801
,715
,1013
2025 06 26 11:44:38.411740,1099
,677
,1222
,822
,726
,981
,1020
,930
,898
,820
,960
,950
,763
,888
2025 06 26 11:44:38.684041,735
,1093
,811
,597
,1209
,551
,656
,1162
,968
,655
,1503
,249
,672
,744
2025 06 26 11:44:38.962361,649
,744
,696
,1155
,906
,890
,1117
,824
,929
,1039
,615
,1002
,707
,843
2025 06 26 11:44:39.235657,849
,1174
,927
,871
,778
,1038
,685
,1036
,652
,925
,655
,985
,1514
,959
2025 06 26 11:44:39.483839,896
,835
,843
,762
,1088
,905
,714
,869
,933
,779
,1046
,681
,852
,882
2025 06 26 11:44:39.724102,900
,1129
,910
,827
,844
,656
,744
,1148
,1186
,804
,1069
,961
,713
,1326
2025 06 26 11:44:39.971417,718
,981
,969
,1512
,881
,1251
,581
,1060
,968
,476
,1327
,956
,744
,1064
2025 06 26 11:44:40.227736,1032
,945
,1091
,910
,1078
,526
,1017
,823
,930
,776
,1146
,969
,721
,393
2025 06 26 11:44:40.483947,1112
,481
,831
,652
,1082
,889
,749
,603
,1049
,1186
,898
,931
,959
,1290
2025 06 26 11:44:40.756222,1101
,981
,805
,895
,853
,359
,1011
,786
,775
,786
,1023
,623
,767
,652
2025 06 26 11:44:41.028505,1181
,654
,996
,768
,820
,723
,367
,835
,859
,872
,778
,80
,23554
2025 06 26 11:44:41.532705,594
,1325
,509
,783
,1383
,704
,641
,692
,726
,1081
,974
,1047
,973
,1075
2025 06 26 11:44:41.764968,1054
,828
,758
,618
,1007
,1071
,506
,611
,774
,808
,842
,596
,474
,939
2025 06 26 11:44:41.998267,707
,629
,657
,556
,1035
,1026
,748
,825
,1091
,980
,859
,1002
,1165
,1058
2025 06 26 11:44:42.253445,839
,809
,1071
,728
,764
,537
,704
,425
,1014
,1382
,610
,559
,915
,739
2025 06 26 11:44:42.517782,868
,827
,802
,567
,860
,911
,1238
,1084
,1135
,1029
,795
,1253
,738
,813
2025 06 26 11:44:42.797062,525
,1097
,1013
,598
,1078
,1329
,1149
,695
,841
,864
,709
,1123
,959
,818
2025 06 26 11:44:43.061315,671
,762
,816
,812
,986
,1131
,658
,686
,697
,859
,636
,685
,891
,1117
2025 06 26 11:44:43.309619,916
,817
,833
,763
,746
,1128
,1025
,769
,963
,762
,1207
,1044
,834
,1007
2025 06 26 11:44:43.549847,823
,746
,876
,369
,753
,696
,892
,1256
,1091
,862
,1116
,824
,957
,1028
2025 06 26 11:44:43.774130,808
,893
,1191
,1188
,767
,971
,999
,761
,605
,1065
,1037
,1027
,909
,1320
2025 06 26 11:44:44.029350,1066
,1239
,785
,849
,625
,451
,744
,1217
,572
,948
,697
,739
,555
,936
2025 06 26 11:44:46.334496,997
,836
,1059
,703
,967
,1088
,787
,1118
,1025
,940
,849
,1312
,703
,920
2025 06 26 11:44:46.607757,1457
,886
,1129
,1384
,803
,1041
,796
,770
,1046
,490
,1306
,1283
,960
,1235
2025 06 26 11:44:46.872010,1040
,504
,920
,844
,728
,673
,726
,904
,629
,825
,956
,1117
,1212
,1018
2025 06 26 11:44:47.119335,876
,997
,1034
,862
,1007
,729
,822
,1229
,1100
,975
,920
,756
,1031
,1323
2025 06 26 11:44:47.367573,1042
,594
,952
,924
,1359
,922
,787
,719
,723
,1119
,1372
,910
,906
,744
2025 06 26 11:44:47.607917,853
,577
,999
,590
,1135
,1089
,880
,737
,757
,1042
,965
,1277
,881
,701
2025 06 26 11:44:47.864216,669
,815
,658
,764
,792
,1155
,872
,942
,892
,918
,1173
,1036
,1272
,922
2025 06 26 11:44:48.127507,888
,796
,1098
,992
,1141
,775
,1028
,1268
,1063
,757
,1171
,674
,935
,1078
2025 06 26 11:44:48.400763,593
,1210
,866
,921
,1060
,776
,991
,949
,666
,899
,994
,1004
,530
,961
2025 06 26 11:44:48.665027,655
,1045
,1082
,1033
,592
,937
,812
,1216
,676
,1127
,928
,1029
,947
,669
2025 06 26 11:44:48.913259,812
,901
,801
,994
,954
,937
,916
,738
,715
,1216
,851
,593
,1036
,957
2025 06 26 11:44:49.152520,1097
,946
,1054
,996
,1153
,897
,1018
,574
,1307
,748
,702
,908
,925
,749
2025 06 26 11:44:49.377827,1110
,990
,1018
,933
,1002
,1393
,852
,899
,884
,1063
,730
,889
,1064
,825
2025 06 26 11:44:49.634100,835
,631
,833
,788
,1115
,694
,584
,1033
,1109
,854
,898
,801
,677
,1096
2025 06 26 11:44:49.890320,809
,741
,730
,583
,1032
,1182
,596
,901
,1037
,803
,957
,695
,1055
,731
2025 06 26 11:44:50.161510,1089
,902
,913
,1253
,813
,686
,1199
,944
,762
,775
,1107
,962
,628
,977
2025 06 26 11:44:50.440800,789
,951
,807
,631
,623
,542
,652
,585
,842
,964
,1301
,971
,1019
,794
2025 06 26 11:44:50.697139,1122
,953
,935
,1122
,905
,946
,1169
,1009
,863
,850
,893
,1052
,1124
,962
2025 06 26 11:44:50.937434,947
,1070
,970
,928
,1007
,880
,783
,936
,1215
,716
,1155
,1074
,1006
,1053
2025 06 26 11:44:51.185718,983
,916
,946
,771
,965
,877
,535
,1000
,843
,827
,868
,747
,991
,1007
2025 06 26 11:44:51.426996,848
,1129
,391
,1051
,1289
,998
,1018
,1014
,774
,940
,861
,1037
,960
,950
2025 06 26 11:44:51.683141,1047
,1123
,1154
,1175
,548
,751
,994
,750
,1167
,1090
,1058
,978
,993
,956
2025 06 26 11:44:51.946434,822
,1092
,726
,816
,1348
,889
,837
,1068
,1347
,998
,1088
,337
,481
,1287
2025 06 26 11:44:52.225677,834
,754
,753
,518
,304
,628
,1002
,1177
,1318
,829
,806
,1100
,969
,586
2025 06 26 11:44:52.498957,559
,716
,1178
,948
,1049
,530
,755
,611
,1082
,927
,463
,948
,1130
,992
2025 06 26 11:44:52.755287,944
,668
,1199
,801
,1074
,1204
,1092
,832
,1048
,828
,972
,876
,1191
,1307
2025 06 26 11:44:53.010710,1022
,1125
,1000
,656
,1067
,905
,1069
,1084
,693
,1191
,602
,715
,897
,962
2025 06 26 11:44:53.242959,1078
,1053
,811
,941
,1211
,884
,683
,889
,811
,1012
,854
,765
,700
,1020
2025 06 26 11:44:53.499300,715
,741
,746
,925
,967
,842
,1144
,844
,1115
,1078
,824
,922
,870
,872
2025 06 26 11:44:53.762599,1011
,1055
,586
,1102
,1266
,486
,1074
,870
,866
,682
,675
,474
,943
,1119
2025 06 26 11:44:54.035960,897
,639
,923
,941
,802
,960
,867
,750
,1390
,764
,914
,901
,543
,583
2025 06 26 11:44:54.300280,786
,968
,577
,1124
,1096
,956
,780
,615
,972
,1217
,1096
,1170
,716
,1018
2025 06 26 11:44:54.555522,1034
,1003
,1218
,1255
,626
,1136
,742
,880
,862
,918
,826
,1324
,1355
,797
2025 06 26 11:44:54.803838,737
,269
,595
,1314
,725
,1387
,1107
,567
,606
,728
,417
,537
,1345
,536
2025 06 26 11:44:55.036113,681
,1345
,374
,988
,965
,1582
,440
,1151
,939
,626
,950
,1208
,497
,1216
2025 06 26 11:44:57.318190,1389
,1216
,1060
,1163
,1232
,965
,1072
,840
,1054
,1181
,492
,1109
,1029
,646
2025 06 26 11:44:57.581438,1213
,880
,1076
,1074
,931
,1007
,925
,1161
,1132
,1074
,934
,1091
,934
,997
2025 06 26 11:44:57.860382,1162
,1033
,1389
,1165
,1156
,950
,728
,1071
,682
,1147
,1022
,1032
,1353
,1092
2025 06 26 11:44:58.125920,944
,1153
,1128
,1106
,1085
,923
,1419
,936
,1156
,1408
,792
,946
,882
,1235
2025 06 26 11:44:58.382268,968
,1160
,1399
,1295
,1230
,886
,1353
,1194
,1186
,1649
,785
,1383
,1211
,641
2025 06 26 11:44:58.621525,1240
,1050
,968
,954
,997
,1171
,1097
,949
,1268
,716
,887
,1189
,1434
,1213
2025 06 26 11:44:58.845834,1187
,1129
,1431
,924
,1169
,1201
,982
,1138
,735
,1185
,925
,1179
,1067
,949
2025 06 26 11:44:59.102176,1156
,1129
,1174
,1190
,987
,999
,1138
,929
,1226
,995
,1125
,1084
,794
,1072
2025 06 26 11:44:59.357535,1000
,879
,1082
,1151
,722
,1055
,1321
,813
,956
,1120
,1431
,1011
,1045
,1066
2025 06 26 11:44:59.630922,1115
,1061
,627
,1272
,1163
,1202
,918
,1181
,1097
,1217
,1328
,1253
,860
,776
2025 06 26 11:44:59.910184,837
,968
,781
,752
,1053
,952
,1093
,1067
,1102
,826
,399
,1267
,966
,1000
2025 06 26 11:45:00.158385,1442
,691
,1353
,1091
,86
,668
,1356
,614
,677
,1242
,1135
,1334
,1033
,1280
2025 06 26 11:45:00.406589,986
,892
,1400
,626
,1025
,1060
,989
,945
,880
,1032
,809
,837
,757
,699
2025 06 26 11:45:00.630865,1176
,1289
,933
,957
,526
,1335
,811
,520
,483
,849
,1051
,1010
,1023
,1080
2025 06 26 11:45:00.879059,1224
,1126
,1096
,1230
,1370
,1083
,862
,1298
,1115
,1176
,1279
,1261
,1060
,1248
2025 06 26 11:45:01.134322,1001
,1217
,1524
,1402
,1211
,920
,858
,543
,734
,522
,820
,974
,902
,1132
2025 06 26 11:45:01.398568,1021
,772
,484
,1179
,782
,764
,991
,887
,947
,1324
,1378
,1330
,983
,875
2025 06 26 11:45:01.671946,1330
,1044
,1258
,842
,1155
,790
,1082
,1149
,1313
,1014
,878
,909
,865
,767
2025 06 26 11:45:01.936081,811
,891
,1346
,1031
,904
,1235
,970
,874
,827
,1064
,826
,1194
,911
,927
2025 06 26 11:45:02.183340,887
,825
,1368
,959
,1037
,995
,1047
,638
,895
,1414
,808
,1039
,784
,1054
2025 06 26 11:45:02.423558,1083
,1023
,862
,1576
,969
,1215
,1071
,1156
,1073
,935
,1190
,1026
,597
,1460
2025 06 26 11:45:02.648740,908
,1277
,999
,1198
,871
,1049
,1080
,1023
,959
,946
,1122
,899
,1241
,539
2025 06 26 11:45:02.905068,811
,1088
,1084
,1071
,927
,1207
,1093
,641
,931
,739
,642
,1142
,444
,812
2025 06 26 11:45:03.168398,1093
,706
,414
,793
,633
,1174
,770
,1166
,822
,782
,643
,676
,655
,1162
2025 06 26 11:45:03.447656,1612
,848
,966
,1274
,971
,1098
,718
,955
,1218
,1136
,1227
,994
,1229
,1370
2025 06 26 11:45:03.712965,974
,1339
,962
,426
,552
,748
,590
,672
,859
,705
,1180
,837
,1822
,719
2025 06 26 11:45:03.969261,935
,1157
,767
,937
,1323
,1029
,1076
,1100
,610
,1333
,1251
,1143
,528
,628
2025 06 26 11:45:04.208522,669
,630
,315
,611
,1365
,1000
,1125
,1140
,1241
,850
,849
,843
,542
,1906
2025 06 26 11:45:04.440806,640
,967
,626
,1080
,949
,920
,1181
,1108
,1066
,994
,1308
,1193
,967
,787
2025 06 26 11:45:04.681125,1027
,354
,942
,1118
,1149
,346
,1158
,1026
,1117
,987
,752
,1384
,1125
,1196
2025 06 26 11:45:04.936368,1114
,1187
,1313
,1272
,1246
,1367
,894
,553
,651
,678
,744
,900
,421
,436
2025 06 26 11:45:05.209699,751
,708
,1163
,1385
,544
,1716
,817
,761
,1075
,744
,965
,1182
,851
,836
2025 06 26 11:45:05.482054,742
,948
,1280
,1141
,1155
,909
,1261
,808
,1070
,908
,1256
,1263
,910
,1347
2025 06 26 11:45:05.737342,1188
,724
,1418
,769
,893
,788
,1016
,1482
,936
,1041
,1214
,1072
,608
,1266
2025 06 26 11:45:05.993635,928
,556
,641
,814
,694
,1036
,1184
,979
,1052
,852
,971
,1375
,797
,1247
2025 06 26 11:45:08.274803,1324
,1335
,1143
,1228
,825
,1535
,1197
,926
,1298
,1090
,719
,1254
,1387
,1205
2025 06 26 11:45:08.531084,1259
,1059
,1044
,676
,685
,1204
,1794
,931
,919
,895
,730
,578
,1140
,970
2025 06 26 11:45:08.795406,1435
,486
,901
,759
,1194
,547
,1102
,860
,476
,1207
,941
,1143
,1180
,535
2025 06 26 11:45:09.067665,1238
,783
,593
,1334
,1051
,1165
,1482
,1519
,1191
,1353
,1075
,1307
,1449
,759
2025 06 26 11:45:09.348004,1061
,1112
,989
,842
,928
,888
,848
,1208
,1313
,826
,982
,1281
,1028
,515
2025 06 26 11:45:09.604130,561
,992
,1257
,970
,1224
,921
,939
,1128
,1065
,1166
,925
,1160
,1250
,847
2025 06 26 11:45:09.851373,723
,777
,993
,1043
,1050
,1150
,794
,1096
,923
,708
,1017
,1640
,703
,906
2025 06 26 11:45:10.083674,577
,499
,790
,1213
,905
,1199
,821
,1224
,742
,1435
,1709
,607
,935
,698
2025 06 26 11:45:10.340026,967
,982
,1711
,892
,835
,1471
,674
,958
,367
,1117
,1044
,1039
,934
,1044
2025 06 26 11:45:10.597266,955
,953
,1329
,934
,1252
,1007
,434
,644
,1157
,1025
,941
,1063
,1148
,772
2025 06 26 11:45:10.875497,953
,898
,1254
,760
,468
,637
,1006
,950
,501
,700
,1098
,1016
,1086
,1041
2025 06 26 11:45:11.148857,1124
,1414
,970
,897
,1064
,281
,800
,1320
,1208
,1391
,751
,682
,1114
,648
2025 06 26 11:45:11.397126,1068
,883
,925
,1012
,998
,1476
,393
,776
,954
,809
,893
,1126
,366
,945
2025 06 26 11:45:11.645314,779
,797
,763
,1162
,797
,1231
,1622
,1061
,874
,1048
,1203
,1319
,882
,1450
2025 06 26 11:45:11.868608,1318
,885
,535
,1419
,1237
,893
,1345
,900
,546
,893
,1073
,878
,602
,1151
2025 06 26 11:45:12.116941,821
,972
,823
,1044
,1037
,815
,1001
,1193
,635
,1043
,1217
,1125
,1180
,786
2025 06 26 11:45:12.373199,1015
,1429
,929
,1066
,992
,1478
,742
,1130
,1218
,1051
,1184
,1236
,649
,974
2025 06 26 11:45:12.637544,1058
,1050
,970
,877
,1225
,891
,1111
,1256
,1338
,1406
,1195
,1040
,986
,1029
2025 06 26 11:45:12.909826,1281
,1471
,1015
,1480
,1225
,1147
,1027
,1109
,1277
,1095
,1202
,1180
,1403
,1394
2025 06 26 11:45:13.190090,1366
,933
,1123
,1130
,1289
,951
,1053
,1437
,1168
,1331
,1095
,1095
,894
,1043
2025 06 26 11:45:13.446282,1490
,1198
,1170
,1486
,1218
,1338
,1261
,1143
,1225
,1286
,1350
,1370
,1281
,1312
2025 06 26 11:45:13.693470,1086
,1114
,1338
,1152
,1114
,1054
,1197
,909
,1188
,1140
,1444
,1282
,1058
,1071
2025 06 26 11:45:13.933768,1131
,1099
,1299
,1441
,829
,1136
,1246
,718
,989
,848
,1010
,1110
,1004
,1467
2025 06 26 11:45:14.190089,1323
,933
,1202
,948
,1052
,974
,1075
,955
,916
,1021
,1087
,763
,965
,1273
2025 06 26 11:45:14.453417,1119
,1264
,986
,1286
,1054
,1056
,1003
,1009
,1250
,1112
,1264
,913
,1209
,1162
2025 06 26 11:45:14.726844,704
,841
,907
,820
,1116
,1395
,1308
,1066
,1439
,1230
,746
,902
,787
,1296
2025 06 26 11:45:14.991019,1259
,867
,1091
,928
,975
,1079
,929
,1018
,1256
,808
,866
,1206
,566
,984
2025 06 26 11:45:15.239302,1108
,709
,1243
,1300
,980
,1204
,841
,1342
,891
,1082
,520
,996
,1164
,914
2025 06 26 11:45:15.478510,1098
,923
,771
,1078
,1202
,710
,1141
,865
,880
,921
,977
,992
,905
,1039
2025 06 26 11:45:15.703744,1073
,876
,696
,1235
,836
,981
,770
,1187
,1342
,596
,1056
,971
,1129
,905
2025 06 26 11:45:15.960056,1226
,691
,1021
,1088
,1178
,996
,1642
,967
,771
,826
,1030
,1101
,1149
,1006
2025 06 26 11:45:16.216241,1031
,656
,1021
,1186
,902
,1096
,1155
,846
,756
,915
,969
,1158
,928
,1260
2025 06 26 11:45:16.487495,599
,1095
,903
,1121
,1099
,898
,917
,1154
,855
,750
,1035
,1031
,864
,1006
2025 06 26 11:45:16.766728,1357
,922
,1012
,1267
,1193
,1281
,1039
,961
,671
,1200
,1053
,514
,841
,1125
2025 06 26 11:45:17.022900,864
,1226
,776
,1177
,987
,817
,1179
,1344
,1071
,957
,811
,698
,987
,1073
2025 06 26 11:45:19.280972,942
,886
,908
,1017
,1112
,1423
,1075
,730
,1083
,1015
,1062
,946
,688
,1358
2025 06 26 11:45:19.513300,1263
,1124
,1125
,1090
,827
,1072
,1380
,1323
,925
,632
,1007
,956
,1215
,983
2025 06 26 11:45:19.768611,1353
,999
,1557
,603
,859
,1011
,894
,669
,448
,836
,1133
,1197
,821
,1144
2025 06 26 11:45:20.025942,1110
,706
,957
,799
,1434
,840
,684
,887
,898
,803
,1055
,993
,998
,750
2025 06 26 11:45:20.305239,1523
,1455
,1100
,973
,953
,605
,949
,1248
,1208
,978
,857
,1166
,974
,1230
2025 06 26 11:45:20.577592,1118
,968
,942
,1121
,1227
,780
,805
,1140
,817
,802
,1114
,824
,726
,841
2025 06 26 11:45:20.825854,1068
,1131
,1394
,798
,1448
,868
,760
,1174
,850
,1132
,779
,1334
,1091
,1118
2025 06 26 11:45:21.074141,1373
,1305
,867
,782
,850
,762
,1193
,951
,1002
,976
,803
,933
,1142
,1154
2025 06 26 11:45:21.305438,1125
,1313
,1120
,1151
,752
,953
,568
,1095
,809
,1156
,658
,1143
,808
,1061
2025 06 26 11:45:21.545772,904
,1031
,1231
,912
,1008
,985
,1031
,804
,1088
,1156
,1183
,1022
,1016
,1287
2025 06 26 11:45:21.802067,1183
,1087
,766
,970
,928
,1223
,1033
,716
,1218
,575
,1108
,630
,1059
,850
2025 06 26 11:45:22.067243,927
,1029
,857
,707
,516
,750
,1255
,934
,1086
,1181
,1539
,1137
,915
,525
2025 06 26 11:45:22.338378,703
,721
,722
,1332
,1276
,1037
,997
,1076
,967
,520
,941
,751
,1163
,909
2025 06 26 11:45:22.602623,1151
,1109
,1068
,962
,795
,1014
,992
,1008
,751
,967
,986
,1119
,663
,950
2025 06 26 11:45:22.850960,854
,928
,719
,1126
,1065
,1205
,987
,608
,812
,556
,562
,1339
,836
,765
2025 06 26 11:45:23.091288,1025
,1015
,613
,1490
,1287
,1370
,1105
,1227
,939
,1145
,1249
,1049
,1040
,577
2025 06 26 11:45:23.339496,984
,1124
,975
,1203
,1192
,876
,1137
,1040
,1080
,1038
,1338
,1363
,704
,1168
2025 06 26 11:45:23.595789,1421
,1077
,752
,1070
,990
,905
,1069
,792
,970
,1311
,1149
,1329
,1300
,920
2025 06 26 11:45:23.868132,1372
,1246
,879
,988
,1068
,1057
,902
,1003
,1031
,1546
,1121
,1055
,943
,1262
2025 06 26 11:45:24.146356,815
,689
,946
,1412
,777
,940
,1155
,1048
,1152
,733
,1068
,1308
,1309
,1271
2025 06 26 11:45:24.402626,936
,975
,1024
,1314
,811
,884
,1048
,1183
,1082
,1172
,1092
,818
,923
,1366
2025 06 26 11:45:24.643901,858
,971
,514
,1002
,1019
,1215
,613
,781
,417
,1076
,1048
,1157
,1383
,1030
2025 06 26 11:45:24.876078,834
,580
,634
,878
,979
,1019
,831
,780
,763
,916
,1432
,914
,993
,1139
2025 06 26 11:45:25.115363,1341
,1122
,1048
,984
,1027
,874
,1436
,1217
,895
,1234
,1078
,635
,595
,1329
2025 06 26 11:45:25.371664,1389
,1044
,999
,1087
,1009
,1330
,1224
,1193
,672
,337
,659
,631
,1460
,1136
2025 06 26 11:45:25.636024,757
,926
,1457
,1061
,964
,1346
,1340
,664
,1011
,738
,886
,957
,1285
,759
2025 06 26 11:45:25.909257,934
,1019
,870
,763
,867
,1253
,896
,1017
,1085
,1139
,1526
,700
,934
,1382
2025 06 26 11:45:26.172608,1169
,1001
,613
,629
,1720
,892
,986
,1111
,871
,719
,960
,985
,937
,830
2025 06 26 11:45:27.627258,1053
,1149
,727
,729
,542
,857
,1214
,1004
,1109
,923
,1127
,404
,1284
,786
2025 06 26 11:45:27.867486,1036
,904
,1213
,1161
,1157
,1260
,1170
,899
,1240
,1013
,1015
,1201
,899
,930
2025 06 26 11:45:28.090713,1054
,1376
,951
,576
,1186
,847
,730
,998
,582
,1257
,1089
,962
,1199
,896
2025 06 26 11:45:28.339999,788
,1016
,530
,767
,1393
,1254
,917
,929
,520
,1238
,768
,1348
,1220
,1172
2025 06 26 11:45:28.596192,937
,1222
,970
,1119
,798
,650
,1221
,828
,1225
,1247
,952
,870
,989
,767
2025 06 26 11:45:30.917224,847
,632
,1137
,1089
,958
,596
,1280
,941
,1030
,878
,1285
,1079
,976
,996
2025 06 26 11:45:31.181363,1097
,985
,494
,1017
,1079
,1013
,1536
,1291
,916
,1390
,1188
,1075
,964
,1227
2025 06 26 11:45:31.429536,694
,1118
,1058
,1317
,745
,770
,988
,1233
,1203
,1038
,806
,989
,597
,742
2025 06 26 11:45:31.668725,889
,1184
,1082
,861
,521
,661
,1051
,1241
,1151
,1058
,897
,1156
,1012
,1289
2025 06 26 11:45:31.900977,879
,864
,571
,1126
,841
,1032
,1279
,1166
,1303
,1248
,1323
,1049
,1257
,1131
2025 06 26 11:45:32.157249,753
,819
,1303
,973
,1128
,885
,1329
,1070
,1026
,1103
,887
,778
,939
,1116
2025 06 26 11:45:32.413499,897
,937
,1031
,749
,822
,661
,753
,988
,1386
,944
,926
,1095
,1155
,1146
2025 06 26 11:45:32.684752,756
,989
,1339
,1585
,921
,867
,1182
,906
,965
,1283
,604
,732
,1048
,936
2025 06 26 11:45:32.958056,976
,1224
,940
,873
,890
,1083
,979
,685
,1148
,1050
,838
,1076
,1049
,968
2025 06 26 11:45:33.206391,924
,716
,680
,647
,669
,694
,906
,965
,824
,1080
,887
,980
,1365
,541
2025 06 26 11:45:33.461723,1221
,1178
,1274
,938
,1200
,789
,1197
,783
,694
,809
,1302
,988
,1251
,1140
2025 06 26 11:45:33.694022,517
,1046
,533
,1158
,1090
,1124
,784
,687
,1194
,883
,851
,555
,823
,856
2025 06 26 11:45:33.950285,885
,730
,1238
,639
,451
,1254
,853
,721
,1363
,1214
,1053
,1147
,878
,1202
2025 06 26 11:45:34.214591,871
,1146
,837
,1332
,790
,1037
,730
,1002
,722
,1012
,681
,674
,1232
,1589
2025 06 26 11:45:34.486871,737
,875
,894
,897
,861
,630
,918
,888
,652
,727
,1354
,827
,1091
,806
2025 06 26 11:45:34.751231,868
,1050
,909
,1221
,1018
,1214
,881
,949
,902
,1209
,776
,762
,1225
,1114
2025 06 26 11:45:35.007525,708
,829
,1266
,683
,973
,1483
,1300
,1383
,806
,1198
,877
,1088
,1218
,856
2025 06 26 11:45:35.254873,1018
,649
,852
,1261
,947
,764
,1325
,1174
,1090
,1291
,1285
,951
,1327
,1364
2025 06 26 11:45:35.487068,910
,931
,944
,1290
,1091
,1392
,1083
,1130
,912
,885
,1092
,1000
,1213
,944
2025 06 26 11:45:35.743348,945
,856
,1009
,1323
,964
,1129
,1240
,1376
,946
,1079
,1182
,995
,857
,926
2025 06 26 11:45:35.998695,811
,981
,994
,1361
,1293
,1350
,1397
,1183
,1076
,730
,1751
,1116
,1196
,919
2025 06 26 11:45:36.271978,1231
,1125
,1320
,1105
,1274
,905
,1262
,1467
,1141
,682
,1216
,955
,1178
,1073
2025 06 26 11:45:36.544285,1009
,887
,1118
,1145
,1123
,809
,1426
,965
,1248
,1134
,671
,945
,1416
,1129
2025 06 26 11:45:36.822643,1156
,1300
,1063
,1667
,1606
,725
,1255
,1413
,936
,1114
,1245
,1169
,988
,946
2025 06 26 11:45:37.063969,1298
,936
,1325
,931
,828
,1097
,902
,1030
,1470
,946
,841
,990
,778
,1231
2025 06 26 11:45:37.312200,919
,1245
,1114
,1052
,903
,934
,1217
,1105
,1161
,1001
,1185
,1191
,1179
,920
2025 06 26 11:45:37.553539,1224
,1101
,959
,1329
,1160
,1495
,1189
,999
,945
,799
,1280
,899
,893
,1339
2025 06 26 11:45:37.808838,1331
,1062
,1002
,765
,760
,1453
,1254
,601
,1004
,1083
,1372
,1239
,1191
,774
2025 06 26 11:45:38.073117,1057
,1060
,951
,1220
,1049
,1036
,860
,1342
,1546
,1381
,1501
,1197
,1061
,957
2025 06 26 11:45:38.352359,1536
,1071
,1043
,1052
,1267
,1088
,837
,1255
,1169
,1255
,706
,1048
,1188
,1218
2025 06 26 11:45:38.624618,893
,875
,1253
,713
,956
,1302
,819
,1264
,1050
,795
,1105
,669
,1117
,996
2025 06 26 11:45:38.880941,1257
,1108
,1046
,1309
,914
,1182
,1014
,805
,1019
,1014
,992
,1248
,1314
,937
2025 06 26 11:45:39.137275,927
,1000
,756
,640
,1160
,878
,827
,1215
,1117
,750
,1239
,1211
,649
,1419
2025 06 26 11:45:39.369591,844
,629
,944
,913
,885
,1116
,1093
,1397
,1233
,603
,1095
,1038
,1205
,1403
2025 06 26 11:45:39.624885,1003
,1307
,1023
,1046
,941
,1207
,1113
,1132
,879
,1061
,828
,1138
,869
,548
2025 06 26 11:45:41.930057,1117
,980
,813
,855
,1554
,836
,920
,1145
,953
,1017
,1005
,799
,1186
,1196
2025 06 26 11:45:42.203416,1082
,1149
,805
,1187
,1123
,1594
,1078
,1221
,976
,996
,1235
,911
,1032
,820
2025 06 26 11:45:42.458715,1277
,817
,866
,1384
,1093
,1110
,818
,1147
,986
,1057
,1572
,1025
,1117
,999
2025 06 26 11:45:42.706992,1022
,1298
,917
,953
,735
,814
,709
,1398
,1255
,1265
,690
,1091
,1373
,663
2025 06 26 11:45:42.939324,1140
,1275
,1195
,1234
,895
,1048
,1211
,956
,979
,859
,892
,1213
,903
,862
2025 06 26 11:45:43.170637,847
,936
,976
,1089
,769
,1056
,1559
,901
,1304
,1020
,432
,912
,1257
,578
2025 06 26 11:45:43.426936,1328
,1153
,1351
,977
,765
,1242
,946
,853
,1126
,1175
,1294
,1382
,1147
,1040
2025 06 26 11:45:43.691222,1168
,947
,569
,1043
,782
,1064
,700
,1099
,1179
,900
,981
,903
,970
,1118
2025 06 26 11:45:43.964509,992
,1092
,931
,1614
,570
,783
,1171
,1270
,1351
,891
,979
,1179
,1224
,914
2025 06 26 11:45:44.235821,1260
,1033
,1076
,1187
,1114
,828
,1080
,1282
,834
,910
,843
,995
,1302
,1014
2025 06 26 11:45:44.484057,783
,834
,1267
,832
,1057
,1084
,1365
,992
,815
,1036
,1277
,884
,1124
,829
2025 06 26 11:45:44.732275,834
,1073
,970
,1275
,725
,808
,1089
,997
,1386
,766
,480
,844
,1064
,1210
2025 06 26 11:45:44.955610,1094
,875
,1181
,1244
,876
,674
,880
,1143
,1373
,713
,1295
,994
,1094
,656
2025 06 26 11:45:45.211936,1107
,1137
,994
,983
,1035
,1056
,975
,1480
,850
,1334
,900
,1041
,729
,824
2025 06 26 11:45:45.468184,574
,1081
,1382
,846
,1055
,1247
,954
,1161
,1152
,981
,1069
,1239
,783
,672
2025 06 26 11:45:45.740486,817
,1012
,915
,821
,1231
,1048
,909
,838
,984
,1193
,836
,792
,1229
,828
2025 06 26 11:45:46.012821,644
,1062
,992
,870
,1031
,860
,751
,494
,1024
,1051
,1135
,983
,1014
,1363
2025 06 26 11:45:46.269035,910
,1013
,734
,815
,987
,986
,1460
,852
,939
,947
,874
,1214
,929
,1329
2025 06 26 11:45:46.517365,1043
,838
,880
,1114
,859
,556
,706
,993
,1019
,842
,597
,1123
,1070
,1264
2025 06 26 11:45:46.748682,842
,996
,1216
,1285
,955
,1015
,909
,531
,742
,880
,940
,909
,1051
,1135
2025 06 26 11:45:46.982008,818
,1219
,1248
,1192
,987
,587
,671
,769
,905
,569
,1062
,1268
,570
,761
2025 06 26 11:45:47.238298,694
,1014
,1283
,836
,1115
,630
,1099
,1119
,1017
,1304
,711
,860
,1089
,939
2025 06 26 11:45:47.502594,679
,429
,774
,1049
,1058
,1015
,780
,708
,1115
,1247
,776
,926
,854
,877
2025 06 26 11:45:47.780772,1095
,977
,927
,1266
,902
,590
,1053
,1227
,492
,1070
,858
,911
,1031
,1079
2025 06 26 11:45:48.045057,1302
,842
,1075
,1012
,1201
,1010
,568
,820
,1022
,815
,1000
,983
,1028
,1173
2025 06 26 11:45:48.294330,1100
,668
,977
,1159
,1232
,950
,940
,723
,775
,785
,743
,636
,1079
,1065
2025 06 26 11:45:48.533641,1048
,1299
,534
,860
,958
,991
,1309
,682
,868
,1224
,1071
,829
,811
,1146
2025 06 26 11:45:48.758030,1268
,974
,800
,860
,1075
,775
,602
,1208
,1203
,1211
,965
,796
,737
,839
2025 06 26 11:45:49.014318,1036
,1126
,994
,1211
,1180
,1296
,585
,1020
,1329
,784
,633
,930
,871
,1029
2025 06 26 11:45:49.278490,900
,953
,1318
,928
,600
,1003
,1023
,739
,1086
,879
,988
,1019
,1383
,1107
2025 06 26 11:45:49.550800,647
,1144
,1102
,1070
,945
,1541
,972
,884
,1079
,1203
,1222
,1398
,781
,786
2025 06 26 11:45:49.823066,1077
,774
,1404
,739
,1103
,875
,1307
,1053
,1090
,936
,1128
,604
,1042
,713
2025 06 26 11:45:50.071361,500
,1068
,1009
,982
,976
,1083
,1015
,1011
,568
,776
,681
,1221
,921
,906
2025 06 26 11:45:50.318711,1130
,1013
,1239
,979
,1251
,901
,1056
,910
,825
,1186
,954
,819
,1286
,919
2025 06 26 11:45:52.567752,971
,1242
,966
,964
,892
,1021
,1087
,1231
,1011
,864
,945
,750
,580
,1165
2025 06 26 11:45:52.824136,1145
,970
,1284
,910
,1135
,898
,935
,724
,1094
,764
,622
,977
,1275
,1078
2025 06 26 11:45:53.080411,1258
,1230
,1522
,895
,901
,995
,908
,1076
,802
,905
,805
,1049
,1073
,1167
2025 06 26 11:45:53.352711,777
,596
,936
,1346
,1279
,855
,1056
,1032
,1096
,868
,1020
,1302
,1069
,952
2025 06 26 11:45:53.631964,868
,897
,1098
,1060
,776
,826
,775
,1252
,1060
,1081
,1268
,1084
,1195
,755
2025 06 26 11:45:53.873214,983
,1009
,1092
,968
,934
,992
,1002
,1191
,681
,1080
,1251
,787
,837
,1283
2025 06 26 11:45:54.129495,1068
,1030
,1180
,585
,632
,981
,994
,1124
,874
,1122
,1192
,761
,683
,923
2025 06 26 11:45:54.361773,750
,1365
,1378
,730
,926
,1055
,1208
,753
,1173
,745
,1113
,797
,860
,1003
2025 06 26 11:45:54.618161,825
,798
,1182
,986
,1007
,866
,745
,796
,1232
,1096
,871
,688
,879
,1198
2025 06 26 11:45:54.882494,1042
,1032
,869
,1108
,1094
,803
,1115
,1249
,860
,1180
,1112
,1064
,1071
,1089
2025 06 26 11:45:55.160751,865
,1057
,910
,776
,801
,780
,853
,1186
,922
,1180
,814
,845
,550
,1035
2025 06 26 11:45:55.433951,1333
,867
,1064
,1038
,1037
,902
,1221
,992
,715
,677
,755
,1262
,877
,562
2025 06 26 11:45:55.690132,1014
,926
,772
,844
,1244
,1081
,1186
,1006
,707
,1093
,889
,909
,1062
,1006
2025 06 26 11:45:55.946428,1118
,543
,1362
,902
,1181
,1283
,859
,1090
,801
,686
,905
,956
,808
,1090
2025 06 26 11:45:56.177747,780
,1012
,850
,1323
,1060
,1018
,714
,1153
,858
,1141
,1266
,938
,1042
,1073
2025 06 26 11:45:56.434084,729
,1058
,1092
,1235
,899
,1248
,1024
,1038
,940
,1125
,794
,1109
,901
,696
2025 06 26 11:45:56.690336,858
,687
,916
,1034
,893
,928
,891
,960
,1023
,877
,1121
,1263
,970
,1291
2025 06 26 11:45:56.962504,782
,1168
,1131
,682
,840
,1063
,914
,1248
,885
,854
,1114
,1208
,797
,1090
2025 06 26 11:45:57.234845,773
,1204
,857
,1048
,969
,1145
,948
,1225
,903
,1002
,1138
,705
,1470
,896
2025 06 26 11:45:57.507128,717
,407
,824
,1312
,908
,774
,646
,608
,1230
,647
,851
,628
,855
,785
2025 06 26 11:45:57.755429,952
,748
,870
,857
,513
,1256
,725
,1088
,1092
,794
,1149
,1142
,938
,1083
2025 06 26 11:45:57.994767,1043
,798
,879
,1048
,1071
,1099
,925
,729
,819
,1021
,906
,1024
,878
,992
2025 06 26 11:45:58.243034,979
,900
,887
,1051
,843
,1070
,953
,1001
,916
,1021
,1350
,869
,1243
,1316
2025 06 26 11:45:58.499378,934
,1050
,940
,1060
,1311
,921
,1264
,1120
,1034
,1147
,777
,737
,1174
,693
2025 06 26 11:45:58.754622,820
,1006
,788
,1137
,1011
,1040
,1093
,603
,813
,1171
,826
,678
,1119
,892
2025 06 26 11:45:59.027964,747
,997
,1007
,1118
,877
,876
,781
,1280
,916
,991
,668
,1120
,1163
,661
2025 06 26 11:45:59.307212,934
,1010
,707
,701
,1162
,985
,753
,885
,792
,1034
,884
,1117
,816
,938
2025 06 26 11:45:59.548498,740
,776
,966
,1115
,1018
,1187
,1003
,961
,778
,672
,984
,796
,803
,685
2025 06 26 11:45:59.803703,980
,1011
,891
,1283
,995
,837
,1159
,1096
,997
,876
,747
,950
,1189
,1130
2025 06 26 11:46:00.036994,914
,957
,920
,1133
,982
,925
,984
,889
,810
,1222
,1090
,1162
,808
,892
2025 06 26 11:46:00.293318,710
,1215
,988
,941
,1122
,1147
,1009
,934
,995
,801
,872
,1094
,920
,1204
2025 06 26 11:46:00.556684,1158
,1091
,1040
,1244
,962
,1110
,856
,944
,1087
,941
,1296
,1203
,1024
,794
2025 06 26 11:46:00.836118,1048
,1079
,1210
,894
,897
,761
,1181
,951
,765
,785
,1249
,902
,950
,823
2025 06 26 11:46:01.100254,605
,888
,1098
,1232
,746
,984
,1081
,983
,1246
,1065
,991
,991
,790
,1067
2025 06 26 11:46:01.348645,962
,933
,847
,853
,850
,889
,1164
,740
,879
,1112
,1071
,797
,1068
,1204
2025 06 26 11:46:01.596931,985
,868
,883
,1061
,1184
,839
,1316
,484
,843
,874
,1316
,870
,1083
,838
2025 06 26 11:46:03.879115,1330
,794
,743
,1246
,871
,580
,1457
,684
,704
,850
,883
,1244
,1066
,1180
2025 06 26 11:46:04.135399,757
,583
,1376
,734
,897
,928
,1144
,1145
,819
,1162
,776
,727
,988
,1166
2025 06 26 11:46:04.413647,1126
,934
,629
,744
,944
,1140
,753
,1028
,1629
,1284
,1226
,1353
,978
,691
2025 06 26 11:46:04.686892,871
,780
,991
,742
,1039
,1214
,1099
,1229
,945
,829
,927
,1195
,733
,470
2025 06 26 11:46:04.943147,1016
,863
,770
,1245
,972
,1553
,809
,870
,940
,1010
,693
,850
,810
,777
2025 06 26 11:46:05.191409,858
,1206
,771
,1180
,1068
,1066
,1243
,868
,835
,906
,811
,1024
,662
,720
2025 06 26 11:46:05.422646,1023
,923
,709
,817
,1171
,899
,665
,1122
,1101
,1207
,1161
,890
,1064
,1064
2025 06 26 11:46:05.655024,922
,811
,933
,1109
,849
,1172
,1039
,1157
,907
,824
,1204
,1106
,1566
,1334
2025 06 26 11:46:05.911277,1197
,854
,1433
,733
,1210
,865
,912
,1113
,1174
,609
,1512
,671
,1097
,1154
2025 06 26 11:46:06.175596,1276
,1013
,816
,1034
,623
,1020
,1275
,1109
,952
,1044
,839
,1105
,1038
,1063
2025 06 26 11:46:06.447814,1440
,1325
,891
,1311
,1191
,1050
,957
,1071
,1153
,1371
,1207
,1038
,1182
,1209
2025 06 26 11:46:06.720094,1023
,904
,1171
,1232
,897
,1157
,1192
,832
,981
,938
,1071
,1207
,880
,909
2025 06 26 11:46:06.968463,772
,984
,1169
,1423
,1190
,1238
,1051
,1506
,819
,1148
,1045
,685
,764
,1324
2025 06 26 11:46:07.215784,1061
,1136
,1265
,1169
,984
,1410
,1105
,1408
,917
,1112
,1077
,827
,1266
,1069
2025 06 26 11:46:07.440145,1241
,1021
,1069
,953
,1252
,1314
,879
,1512
,714
,1025
,1216
,953
,1066
,983
2025 06 26 11:46:07.688403,872
,1097
,1113
,1046
,977
,1223
,837
,1036
,917
,860
,973
,920
,1112
,1006
2025 06 26 11:46:07.943758,1130
,1103
,1178
,1102
,1195
,1207
,1103
,1619
,932
,1022
,902
,1098
,1035
,888
2025 06 26 11:46:08.216000,1215
,764
,898
,1265
,873
,969
,1134
,1251
,930
,1039
,1307
,725
,691
,1270
2025 06 26 11:46:08.489300,1136
,1118
,932
,940
,1005
,973
,974
,1081
,1189
,969
,1381
,857
,1242
,1219
2025 06 26 11:46:08.752642,971
,1087
,1226
,1073
,1116
,867
,906
,1031
,984
,774
,814
,1007
,981
,1123
2025 06 26 11:46:09.000895,1017
,931
,952
,877
,1007
,706
,1330
,731
,929
,910
,938
,1044
,963
,778
2025 06 26 11:46:09.233208,1222
,1059
,862
,1249
,1015
,1321
,1017
,984
,877
,1079
,962
,885
,767
,835
2025 06 26 11:46:09.466533,666
,863
,923
,1264
,989
,1052
,1219
,829
,1040
,1049
,924
,756
,1183
,921
2025 06 26 11:46:09.721893,1158
,1024
,559
,1154
,976
,1127
,741
,1065
,822
,1029
,1175
,1027
,391
,857
2025 06 26 11:46:09.986103,1193
,831
,1340
,810
,1508
,867
,980
,1097
,1051
,1096
,1221
,1244
,982
,777
2025 06 26 11:46:10.265378,540
,1101
,1094
,821
,733
,718
,814
,1116
,1075
,942
,912
,1447
,987
,1287
2025 06 26 11:46:10.528686,784
,1038
,643
,1034
,671
,832
,981
,422
,988
,618
,1054
,908
,986
,1110
2025 06 26 11:46:10.777910,1063
,1253
,836
,754
,896
,533
,726
,818
,877
,1125
,1131
,809
,800
,1098
2025 06 26 11:46:11.018242,823
,1261
,974
,927
,1043
,634
,1095
,1051
,1084
,1024
,1159
,940
,694
,796
2025 06 26 11:46:11.242528,1355
,1129
,975
,998
,1153
,999
,1074
,1077
,1056
,1100
,1288
,1189
,1242
,991
2025 06 26 11:46:11.497794,1018
,888
,1118
,1254
,1171
,1154
,1105
,885
,824
,1089
,1277
,1046
,1414
,1005
2025 06 26 11:46:11.754108,1068
,1273
,1567
,1014
,1390
,1312
,1467
,939
,1254
,770
,1015
,1174
,1201
,1216
2025 06 26 11:46:12.027421,971
,1232
,1247
,1367
,1520
,928
,1308
,1311
,1183
,1008
,926
,992
,1171
,1057
2025 06 26 11:46:12.298771,1063
,1228
,1251
,949
,1254
,1029
,994
,1009
,1182
,836
,1246
,1302
,1247
,1329
2025 06 26 11:46:14.587903,945
,910
,1056
,827
,927
,767
,1116
,1743
,854
,1099
,822
,1318
,978
,708
2025 06 26 11:46:14.828267,978
,1028
,756
,874
,821
,1076
,848
,919
,1041
,814
,879
,703
,498
,1080
2025 06 26 11:46:15.052503,820
,718
,910
,788
,818
,1065
,972
,1159
,958
,923
,685
,781
,858
,809
2025 06 26 11:46:15.307865,1191
,1004
,939
,1104
,807
,754
,1165
,1334
,1004
,850
,901
,997
,695
,917
2025 06 26 11:46:15.564208,1139
,1112
,992
,1154
,1014
,1026
,860
,1178
,1125
,973
,1265
,1268
,665
,1285
2025 06 26 11:46:15.837410,921
,1228
,1050
,1204
,1144
,1283
,1278
,878
,891
,1054
,1307
,190
,9476
2025 06 26 11:46:16.364661,1245
,1196
,1015
,1351
,1062
,1201
,1055
,1029
,812
,1065
,1190
,927
,1386
,1401
2025 06 26 11:46:16.612960,801
,972
,1118
,928
,1319
,1125
,701
,1359
,1101
,1345
,1241
,959
,1131
,1142
2025 06 26 11:46:16.837315,837
,715
,812
,1120
,903
,906
,936
,1241
,1290
,1162
,1401
,879
,1073
,943
2025 06 26 11:46:17.084620,1356
,1027
,1131
,938
,965
,1311
,1265
,724
,867
,832
,1171
,906
,731
,889
2025 06 26 11:46:17.340943,804
,878
,1070
,761
,860
,671
,1227
,1050
,1394
,1140
,999
,952
,914
,1107
2025 06 26 11:46:17.605324,1498
,988
,930
,1028
,1068
,1007
,1190
,896
,1200
,1195
,1110
,948
,946
,1120
2025 06 26 11:46:17.878590,1148
,1012
,742
,1147
,633
,680
,1140
,915
,1004
,1351
,743
,983
,1380
,1367
2025 06 26 11:46:18.141874,1164
,1128
,1055
,808
,907
,659
,877
,1193
,1093
,1198
,608
,1006
,994
,1192
2025 06 26 11:46:18.390169,1261
,1047
,539
,996
,1212
,1058
,715
,1024
,616
,828
,1116
,911
,1077
,704
2025 06 26 11:46:18.630420,985
,794
,1268
,982
,766
,1156
,822
,784
,1271
,1059
,962
,1048
,1227
,1003
2025 06 26 11:46:18.854777,1053
,1268
,1151
,587
,796
,785
,961
,1275
,851
,886
,545
,783
,1013
,823
2025 06 26 11:46:19.111116,684
,1136
,1032
,741
,1088
,798
,1025
,1013
,667
,477
,1112
,1014
,1210
,989
2025 06 26 11:46:19.390317,1044
,608
,1100
,1528
,858
,1187
,920
,1067
,969
,606
,1197
,1188
,1048
,994
2025 06 26 11:46:19.662663,978
,786
,1121
,1228
,718
,1028
,861
,1070
,1054
,1012
,1043
,827
,1002
,1023
2025 06 26 11:46:19.934885,939
,941
,937
,881
,1024
,784
,701
,920
,1262
,992
,1086
,954
,1324
,929
2025 06 26 11:46:20.183191,580
,1095
,1248
,566
,742
,1033
,747
,1207
,797
,921
,949
,892
,1007
,887
2025 06 26 11:46:20.431504,737
,611
,950
,1118
,691
,562
,911
,945
,996
,1054
,686
,828
,608
,870
2025 06 26 11:46:20.670780,1030
,703
,970
,1014
,1176
,1083
,1340
,1230
,1054
,1027
,484
,591
,572
,1266
2025 06 26 11:46:20.927019,1095
,1031
,1200
,861
,820
,971
,1120
,966
,1141
,943
,720
,1007
,1199
,1073
2025 06 26 11:46:21.183255,945
,771
,1267
,788
,700
,925
,745
,928
,933
,1041
,918
,996
,1214
,1089
2025 06 26 11:46:21.456595,1127
,1019
,1041
,715
,999
,843
,1166
,748
,901
,997
,947
,1136
,656
,809
2025 06 26 11:46:21.727929,879
,1154
,1039
,1050
,1188
,1007
,1029
,1166
,1016
,1225
,616
,966
,1226
,833
2025 06 26 11:46:21.984267,1462
,1259
,882
,872
,939
,1243
,1010
,1053
,992
,793
,921
,1215
,592
,1225
2025 06 26 11:46:22.232121,586
,644
,1046
,1152
,990
,1100
,1069
,951
,820
,998
,807
,788
,928
,1434
2025 06 26 11:46:22.463710,857
,723
,1049
,1220
,827
,565
,346
,1377
,871
,817
,1068
,1025
,1085
,732
2025 06 26 11:46:22.720001,903
,871
,1220
,793
,722
,690
,785
,1091
,906
,742
,1288
,988
,945
,464
2025 06 26 11:46:22.976301,591
,983
,1042
,733
,887
,956
,565
,973
,745
,1221
,1396
,1057
,685
,404
2025 06 26 11:46:23.248635,1055
,979
,627
,972
,1273
,787
,835
,1054
,1044
,528
,939
,1026
,983
,1064
2025 06 26 11:46:23.520896,867
,869
,928
,1267
,840
,1193
,756
,534
,1085
,690
,675
,1188
,1245
,766
2025 06 26 11:46:23.800207,892
,817
,841
,852
,995
,751
,1175
,1031
,1206
,1055
,976
,947
,983
,775
2025 06 26 11:46:24.041506,962
,879
,626
,753
,859
,869
,989
,764
,392
,1111
,1179
,575
,825
,907
2025 06 26 11:46:24.288791,748
,1013
,815
,1131
,553
,761
,972
,1148
,782
,803
,942
,836
,444
,931
2025 06 26 11:46:24.530054,989
,982
,1007
,1340
,901
,998
,974
,1005
,1160
,716
,982
,635
,931
,736
2025 06 26 11:46:24.786350,930
,699
,1120
,522
,964
,1020
,736
,1156
,936
,1236
,1250
,1106
,888
,790
2025 06 26 11:46:27.099483,1037
,896
,1227
,746
,880
,1078
,1094
,1229
,1190
,1236
,1077
,1160
,1112
,1402
2025 06 26 11:46:27.377717,1324
,1283
,1081
,979
,1012
,1022
,876
,1043
,1015
,982
,849
,1069
,866
,922
2025 06 26 11:46:27.642964,1017
,1086
,957
,869
,1316
,1113
,1020
,951
,1003
,1025
,1262
,636
,1051
,1178
2025 06 26 11:46:27.883275,1090
,1283
,1019
,1026
,1195
,1217
,1183
,1246
,1323
,1160
,972
,1398
,1208
,1329
2025 06 26 11:46:28.107510,1018
,1062
,1093
,998
,908
,1222
,930
,1174
,1002
,1017
,1219
,801
,686
,1028
2025 06 26 11:46:28.354825,1110
,1204
,1071
,1180
,948
,1195
,845
,1011
,1300
,1235
,949
,1169
,1305
,1212
2025 06 26 11:46:28.611159,1163
,1129
,1063
,1039
,1103
,798
,1123
,1220
,996
,776
,1250
,826
,1171
,1035
2025 06 26 11:46:28.884358,559
,898
,1310
,1206
,1057
,812
,916
,1132
,1105
,1038
,1082
,837
,925
,659
2025 06 26 11:46:29.155622,528
,1314
,999
,1040
,847
,1013
,1031
,839
,1063
,864
,964
,1037
,956
,1220
2025 06 26 11:46:29.419846,1008
,653
,986
,1170
,1095
,944
,874
,747
,845
,863
,1004
,699
,1037
,1234
2025 06 26 11:46:29.668086,793
,936
,1120
,599
,924
,1090
,953
,878
,1164
,1035
,803
,1068
,1124
,1254
2025 06 26 11:46:29.900399,824
,861
,1137
,958
,1019
,1189
,865
,1230
,1101
,769
,1106
,1008
,1173
,740
2025 06 26 11:46:30.139686,1124
,999
,940
,923
,638
,1097
,1153
,935
,1025
,1153
,910
,873
,884
,874
2025 06 26 11:46:30.396016,1009
,891
,655
,932
,1302
,1091
,918
,967
,816
,922
,1087
,1097
,873
,1252
2025 06 26 11:46:30.660330,1096
,1563
,1255
,1236
,1067
,911
,1121
,1341
,871
,1139
,495
,1095
,427
,933
2025 06 26 11:46:30.932675,757
,1107
,980
,1069
,874
,1033
,1199
,969
,1234
,875
,956
,916
,935
,927
2025 06 26 11:46:31.196899,1291
,1391
,961
,1047
,1034
,1288
,1020
,1152
,1197
,902
,1582
,862
,933
,1538
2025 06 26 11:46:31.445005,1114
,1205
,977
,804
,697
,1041
,915
,628
,1352
,966
,875
,1179
,579
,1114
2025 06 26 11:46:31.685264,1402
,734
,1291
,680
,1295
,1211
,1036
,1600
,482
,1197
,569
,844
,684
,602
2025 06 26 11:46:31.910469,635
,644
,1376
,1537
,869
,1427
,1290
,720
,980
,551
,696
,928
,1204
,723
2025 06 26 11:46:32.165723,654
,1255
,1137
,638
,1076
,1245
,666
,1354
,887
,813
,1489
,1440
,1407
,1374
2025 06 26 11:46:32.422046,753
,1029
,1053
,1304
,429
,959
,588
,738
,1079
,1779
,774
,895
,1123
,951
2025 06 26 11:46:32.694323,1042
,1156
,1288
,1365
,944
,1145
,977
,1241
,987
,1090
,999
,838
,781
,1002
2025 06 26 11:46:32.973560,1099
,1100
,1115
,1066
,1043
,1211
,921
,1195
,1309
,1001
,1372
,925
,1363
,813
2025 06 26 11:46:33.013376,1239
,1352
,1476
,1060
,1522
,1357
,1369
,1204
,1195
,1262
,948
,1435
,1102
,1395
2025 06 26 11:46:33.254681,1109
,750
,996
,1047
,1031
,1456
,1268
,942
,1133
,1180
,1139
,897
,815
,665
2025 06 26 11:46:33.486914,1099
,933
,720
,524
,1293
,341
,1316
,417
,995
,929
,963
,1183
,1108
,1134
2025 06 26 11:46:33.727071,1104
,1037
,1459
,1237
,997
,1093
,1069
,971
,802
,1016
,1108
,1044
,1164
,847
2025 06 26 11:46:33.982326,1180
,1071
,1395
,690
,1215
,973
,1062
,872
,777
,1130
,1122
,1389
,1265
,1203
2025 06 26 11:46:34.255696,1178
,1107
,1283
,1082
,1016
,799
,1280
,1533
,1368
,1030
,1162
,1009
,1283
,1164
2025 06 26 11:46:34.527766,861
,806
,881
,1293
,611
,612
,1164
,1249
,848
,705
,1119
,890
,1155
,1169
2025 06 26 11:46:34.783967,744
,833
,1023
,828
,498
,826
,1246
,662
,1384
,749
,1239
,553
,1175
,944
2025 06 26 11:46:35.039272,1048
,1346
,1053
,403
,1010
,694
,833
,979
,986
,894
,1072
,1106
,825
,1153
2025 06 26 11:46:35.271704,1221
,1229
,1040
,984
,1117
,1382
,600
,1259
,1299
,1017
,950
,1138
,924
,826
2025 06 26 11:46:37.585741,1014
,1079
,1553
,1035
,1004
,1040
,1008
,1201
,924
,1189
,1041
,1085
,794
,948
2025 06 26 11:46:37.850035,985
,1069
,1032
,867
,1177
,1044
,1246
,1391
,1300
,1062
,1297
,1237
,904
,1032
2025 06 26 11:46:38.128269,1227
,1198
,1130
,990
,1243
,1283
,1008
,1049
,1171
,1106
,1403
,859
,880
,1242
2025 06 26 11:46:38.401539,1052
,968
,1260
,884
,798
,995
,830
,974
,1027
,830
,1150
,698
,1131
,1034
2025 06 26 11:46:38.665732,921
,795
,918
,722
,970
,1083
,885
,1061
,586
,872
,1096
,1002
,1082
,838
2025 06 26 11:46:38.914121,695
,835
,1372
,1193
,966
,1117
,977
,775
,1024
,753
,1384
,1025
,1148
,1302
2025 06 26 11:46:39.145184,1155
,1005
,1236
,1015
,831
,1024
,913
,1028
,1058
,1017
,1048
,1213
,1067
,834
2025 06 26 11:46:39.401472,808
,962
,886
,742
,815
,1005
,835
,1005
,1133
,1047
,930
,1156
,924
,1207
2025 06 26 11:46:39.665864,1008
,1030
,730
,796
,1308
,1105
,913
,1227
,989
,967
,720
,1174
,1091
,864
2025 06 26 11:46:39.939100,984
,1028
,991
,986
,1229
,834
,1280
,843
,1283
,1055
,557
,876
,455
,1074
2025 06 26 11:46:40.210227,1071
,804
,1273
,1102
,1085
,1024
,1139
,935
,1130
,834
,670
,1339
,704
,1306
2025 06 26 11:46:40.458541,562
,836
,1007
,841
,919
,1237
,678
,1057
,1126
,1173
,940
,788
,1134
,770
2025 06 26 11:46:40.706850,946
,776
,774
,1199
,851
,939
,750
,686
,854
,811
,1042
,762
,853
,957
2025 06 26 11:46:40.931043,1384
,1170
,1137
,1281
,1335
,1135
,1110
,1123
,981
,824
,703
,1004
,802
,875
2025 06 26 11:46:41.178329,1163
,859
,837
,908
,1195
,655
,1023
,932
,521
,1048
,1150
,576
,986
,1023
2025 06 26 11:46:41.434644,857
,1025
,581
,606
,946
,820
,1208
,895
,986
,806
,1192
,1060
,1078
,1175
2025 06 26 11:46:41.706937,1236
,1135
,1178
,1293
,631
,1046
,1053
,968
,707
,731
,1288
,749
,855
,1184
2025 06 26 11:46:41.979179,1055
,905
,904
,1031
,1006
,883
,800
,963
,1190
,988
,1093
,931
,1019
,961
2025 06 26 11:46:42.243423,1053
,956
,784
,1125
,1007
,1100
,605
,730
,1029
,1117
,1033
,1132
,772
,584
2025 06 26 11:46:42.491537,793
,857
,935
,1094
,771
,897
,778
,897
,996
,999
,682
,1014
,1216
,852
2025 06 26 11:46:42.723749,1224
,1223
,874
,942
,1074
,1065
,995
,820
,547
,1030
,945
,1097
,973
,1270
2025 06 26 11:46:42.956001,786
,1439
,1058
,1146
,1035
,776
,879
,641
,910
,998
,872
,689
,906
,1174
2025 06 26 11:46:43.211242,895
,915
,903
,806
,988
,923
,859
,790
,975
,1152
,668
,857
,1051
,1179
2025 06 26 11:46:43.467637,868
,841
,919
,824
,1044
,1141
,1184
,1124
,1162
,1095
,1281
,1019
,695
,1155
2025 06 26 11:46:43.740892,881
,898
,1053
,990
,951
,1261
,1056
,1228
,935
,926
,800
,718
,801
,686
2025 06 26 11:46:44.019274,1202
,692
,1380
,901
,1329
,932
,945
,1020
,987
,1243
,976
,1034
,1379
,1321
2025 06 26 11:46:44.268587,974
,1290
,958
,1274
,845
,810
,860
,752
,754
,1060
,1126
,1097
,961
,736
2025 06 26 11:46:44.516865,979
,662
,1011
,1128
,1403
,1206
,808
,975
,1047
,678
,679
,374
,1150
,1051
2025 06 26 11:46:44.740258,461
,1276
,670
,347
,1006
,876
,867
,935
,1240
,1130
,1455
,1130
,1332
,1445
2025 06 26 11:46:44.988615,1007
,1261
,1114
,558
,877
,887
,1293
,1142
,1118
,909
,1069
,1071
,155
,779
2025 06 26 11:46:45.244884,1052
,878
,703
,964
,857
,1234
,1046
,455
,1090
,1285
,1537
,1095
,869
,1174
2025 06 26 11:46:45.518107,1170
,793
,862
,1439
,609
,475
,657
,1185
,1296
,693
,1101
,1497
,851
,1113
2025 06 26 11:46:45.789430,1340
,1065
,1029
,1498
,1266
,891
,1246
,995
,1115
,1264
,1358
,829
,1137
,938
2025 06 26 11:46:46.045684,828
,1079
,1185
,1438
,1163
,1684
,1255
,1021
,1319
,1254
,1239
,1671
,1268
,906
2025 06 26 11:46:46.294040,1350
,959
,1229
,1066
,887
,917
,1080
,1025
,1356
,857
,1395
,1000
,1251
,1286
2025 06 26 11:46:48.559071,1007
,1205
,1257
,810
,689
,1121
,1194
,1128
,1129
,1167
,1113
,1193
,879
,1122
2025 06 26 11:46:48.814465,982
,1158
,1132
,925
,1079
,996
,892
,841
,867
,867
,1143
,674
,923
,949
2025 06 26 11:46:49.086843,1103
,941
,877
,1169
,1039
,1321
,852
,1094
,1349
,1085
,1127
,850
,660
,680
2025 06 26 11:46:49.360100,844
,1112
,631
,931
,1083
,864
,851
,1132
,780
,862
,1551
,929
,1156
,938
2025 06 26 11:46:49.623400,866
,1053
,770
,941
,932
,1010
,917
,897
,928
,946
,1045
,1136
,1008
,971
2025 06 26 11:46:49.871673,1165
,1184
,1140
,739
,1025
,1007
,916
,1108
,967
,942
,977
,664
,1265
,893
2025 06 26 11:46:50.103984,1126
,1040
,968
,1059
,1407
,1328
,687
,1087
,901
,1090
,840
,1115
,1011
,1170
2025 06 26 11:46:50.335323,1108
,972
,981
,1412
,1003
,887
,957
,893
,1094
,825
,1012
,1210
,1130
,771
2025 06 26 11:46:50.591618,1163
,1083
,1094
,1326
,1287
,970
,754
,992
,1000
,1270
,871
,1000
,1055
,988
2025 06 26 11:46:50.847896,1199
,1018
,1345
,1348
,1085
,879
,959
,780
,1269
,1111
,1118
,1369
,999
,1021
2025 06 26 11:46:51.120168,1260
,1027
,991
,1267
,1270
,736
,820
,1131
,1417
,1277
,1101
,822
,1263
,1257
2025 06 26 11:46:51.399474,1156
,1135
,1074
,1436
,940
,1165
,890
,1195
,1044
,1024
,1319
,1092
,1180
,1237
2025 06 26 11:46:51.648799,1175
,1019
,1119
,1318
,969
,1265
,715
,943
,891
,1461
,966
,1121
,1144
,965
2025 06 26 11:46:51.897123,1269
,937
,1026
,944
,1051
,1256
,630
,1002
,979
,871
,930
,896
,1060
,962
2025 06 26 11:46:52.120409,931
,894
,768
,889
,1111
,1115
,849
,948
,639
,1069
,821
,840
,772
,1011
2025 06 26 11:46:52.368673,986
,788
,1472
,755
,723
,1114
,901
,1338
,1102
,1145
,1089
,776
,1092
,903
2025 06 26 11:46:52.625001,1210
,497
,1074
,1142
,1091
,1125
,768
,1001
,1221
,1129
,843
,994
,1027
,1275
2025 06 26 11:46:52.888227,928
,961
,975
,922
,1028
,854
,877
,812
,1312
,1255
,792
,973
,509
,1149
2025 06 26 11:46:53.161516,803
,910
,1160
,1223
,1199
,951
,1298
,888
,1260
,1395
,951
,1203
,1521
,949
2025 06 26 11:46:53.425886,1131
,1106
,1064
,1032
,1477
,1228
,1149
,1005
,1034
,1279
,1277
,1599
,728
,1169
2025 06 26 11:46:53.674122,914
,703
,981
,944
,1196
,1127
,893
,642
,836
,1125
,1012
,847
,719
,1041
2025 06 26 11:46:53.913483,1299
,848
,1014
,1443
,1230
,775
,880
,837
,978
,1169
,1047
,986
,961
,1150
2025 06 26 11:46:54.138752,710
,981
,1071
,1071
,972
,1049
,1119
,981
,1354
,1177
,1178
,1263
,1084
,1228
2025 06 26 11:46:54.395126,881
,1160
,1243
,1447
,723
,1104
,800
,1094
,1052
,915
,1191
,889
,1549
,1219
2025 06 26 11:46:54.658357,923
,1173
,1501
,1183
,1138
,1026
,1083
,1174
,884
,1144
,1123
,1025
,748
,1019
2025 06 26 11:46:54.937622,951
,927
,1244
,853
,944
,1220
,1033
,1032
,1163
,1393
,887
,1264
,1184
,897
2025 06 26 11:46:55.202943,1264
,1185
,715
,995
,935
,1122
,865
,1034
,1337
,1334
,1249
,1023
,992
,1071
2025 06 26 11:46:55.450184,906
,969
,1339
,896
,924
,860
,1168
,903
,890
,962
,957
,944
,962
,973
2025 06 26 11:46:55.698609,1164
,965
,980
,979
,796
,1094
,1158
,1403
,1332
,803
,1230
,1323
,722
,1013
2025 06 26 11:46:55.931902,1108
,1121
,1141
,1227
,928
,1291
,948
,1310
,971
,1568
,1063
,841
,996
,924
2025 06 26 11:46:56.188164,747
,1039
,1040
,1093
,1246
,1120
,1097
,1009
,1124
,885
,1110
,874
,993
,704
2025 06 26 11:46:56.451518,1101
,904
,986
,968
,1134
,1243
,953
,1007
,926
,1237
,1032
,999
,1333
,1045
2025 06 26 11:46:56.730865,1394
,1275
,1087
,1003
,1166
,479
,1192
,1117
,1123
,953
,1144
,735
,839
,1135
2025 06 26 11:46:57.004089,852
,1233
,977
,1117
,1128
,759
,962
,895
,921
,1068
,1090
,1091
,824
,1035
2025 06 26 11:46:57.267386,1276
,1237
,966
,923
,879
,1155
,691
,1141
,702
,1131
,1325
,1087
,1087
,1131
2025 06 26 11:46:59.540613,904
,1309
,1221
,1400
,821
,908
,791
,828
,912
,1162
,1071
,901
,875
,1012
2025 06 26 11:46:59.780939,747
,1049
,1075
,1036
,1031
,1264
,1190
,1092
,1039
,1355
,1157
,940
,783
,909
2025 06 26 11:47:00.037066,1025
,863
,1001
,1173
,964
,783
,1051
,1082
,1395
,614
,1035
,1311
,786
,961
2025 06 26 11:47:00.308303,979
,978
,1305
,945
,1255
,822
,1061
,408
,1064
,1278
,1044
,1189
,1085
,1114
2025 06 26 11:47:00.581705,1127
,863
,1162
,1093
,1045
,1135
,850
,1147
,1353
,1103
,1009
,973
,1425
,1416
2025 06 26 11:47:00.838000,921
,1016
,1187
,714
,1132
,1531
,1065
,963
,1001
,1178
,822
,1101
,1099
,1002
2025 06 26 11:47:01.093431,977
,1023
,1004
,1234
,1272
,1268
,764
,1217
,963
,863
,935
,1279
,844
,846
2025 06 26 11:47:01.325655,1331
,1185
,972
,699
,1021
,1125
,959
,657
,1252
,1321
,934
,1288
,974
,1171
2025 06 26 11:47:01.557967,1216
,1185
,979
,936
,1397
,967
,1156
,846
,883
,796
,964
,957
,934
,1159
2025 06 26 11:47:01.813328,1111
,759
,1168
,1048
,771
,890
,903
,1222
,667
,767
,846
,1090
,896
,978
2025 06 26 11:47:02.069617,729
,1431
,893
,1050
,868
,914
,1099
,959
,759
,895
,1230
,652
,1009
,1134
2025 06 26 11:47:02.342965,1192
,792
,821
,966
,1182
,1193
,1030
,1000
,1087
,930
,943
,923
,1024
,1099
2025 06 26 11:47:02.621235,877
,1334
,1183
,782
,805
,895
,979
,522
,832
,958
,850
,880
,1135
,1142
2025 06 26 11:47:02.862488,773
,922
,830
,988
,1003
,981
,1291
,991
,1157
,809
,918
,1169
,848
,1023
2025 06 26 11:47:03.118741,1014
,909
,877
,770
,953
,1108
,999
,879
,863
,904
,661
,1241
,1161
,826
2025 06 26 11:47:03.351992,1022
,652
,985
,686
,1084
,1090
,1332
,907
,893
,922
,1151
,1321
,888
,1039
2025 06 26 11:47:03.607300,1246
,1183
,973
,1129
,1129
,1048
,1101
,1264
,833
,907
,934
,973
,840
,695
2025 06 26 11:47:03.871670,872
,1294
,436
,833
,723
,848
,975
,1112
,1130
,976
,1389
,1167
,1055
,1073
2025 06 26 11:47:04.150943,1117
,951
,1238
,1140
,816
,945
,1002
,776
,845
,1087
,851
,877
,1031
,1359
2025 06 26 11:47:04.414217,913
,1122
,848
,1004
,781
,1014
,1036
,1448
,1225
,677
,703
,922
,1253
,609
2025 06 26 11:47:04.663429,991
,770
,1266
,785
,769
,1134
,1182
,919
,634
,810
,1027
,1165
,763
,1018
2025 06 26 11:47:04.903607,1022
,879
,1122
,1067
,954
,510
,944
,508
,937
,1075
,1230
,1262
,806
,834
2025 06 26 11:47:05.127934,1268
,1135
,1081
,1193
,548
,888
,939
,1041
,549
,1215
,1027
,1101
,717
,1103
2025 06 26 11:47:05.383254,1065
,1004
,765
,793
,1017
,704
,1464
,1013
,960
,957
,1143
,1036
,799
,750
2025 06 26 11:47:05.639522,1055
,547
,723
,1111
,917
,773
,1074
,1189
,1306
,1147
,939
,1506
,1105
,905
2025 06 26 11:47:05.912863,841
,865
,845
,805
,1039
,754
,956
,1263
,981
,990
,1070
,861
,1214
,838
2025 06 26 11:47:06.184213,743
,864
,1112
,1285
,909
,755
,1171
,1058
,788
,1174
,797
,1060
,772
,877
2025 06 26 11:47:06.440425,1004
,1406
,879
,955
,1279
,1335
,925
,869
,1176
,1031
,967
,1141
,797
,888
2025 06 26 11:47:06.688826,836
,1029
,1094
,1028
,1226
,1081
,1168
,1023
,953
,1075
,950
,1147
,1093
,581
2025 06 26 11:47:06.921133,865
,748
,899
,964
,940
,859
,832
,1174
,1067
,1085
,609
,1214
,1002
,999
2025 06 26 11:47:07.153324,1207
,1279
,1028
,1248
,764
,913
,1073
,880
,945
,1041
,1072
,1093
,1147
,703
2025 06 26 11:47:07.409596,518
,1019
,968
,694
,779
,1244
,979
,1084
,994
,823
,1226
,802
,1123
,993
2025 06 26 11:47:07.673883,955
,649
,1102
,1038
,1102
,681
,1049
,762
,1162
,1118
,908
,1116
,1244
,905
2025 06 26 11:47:07.952330,891
,1225
,765
,995
,822
,1121
,1118
,1031
,1147
,908
,964
,1138
,1085
,972
2025 06 26 11:47:10.266375,1108
,1086
,765
,1439
,951
,1008
,1049
,1146
,712
,1004
,751
,954
,1211
,1036
2025 06 26 11:47:10.498644,1301
,593
,808
,851
,1212
,1143
,1153
,1081
,676
,1377
,956
,1267
,1117
,1224
2025 06 26 11:47:10.730985,1190
,964
,1275
,646
,526
,741
,911
,1323
,1311
,1295
,1057
,1120
,873
,1042
2025 06 26 11:47:10.986243,1021
,640
,1470
,1269
,854
,751
,1142
,1090
,1336
,949
,751
,780
,898
,827
2025 06 26 11:47:11.242541,986
,555
,1127
,1173
,751
,915
,1340
,1046
,1367
,1334
,994
,1007
,901
,1419
2025 06 26 11:47:11.515877,1283
,1117
,958
,1021
,1109
,668
,1122
,685
,1049
,1206
,1076
,879
,999
,1053
2025 06 26 11:47:11.794201,1016
,1026
,799
,676
,997
,811
,858
,1170
,1010
,1145
,1033
,666
,747
,956
2025 06 26 11:47:12.035431,809
,1390
,1158
,828
,1150
,861
,1004
,1435
,1119
,1079
,1138
,824
,812
,1083
2025 06 26 11:47:12.291715,641
,857
,835
,957
,868
,1004
,780
,749
,1168
,1223
,1011
,1225
,1002
,812
2025 06 26 11:47:12.516016,1146
,892
,988
,985
,903
,899
,1056
,1030
,844
,877
,702
,969
,1219
,942
2025 06 26 11:47:12.763329,476
,1070
,996
,1152
,1085
,772
,1124
,951
,1021
,1162
,987
,1263
,1000
,1293
2025 06 26 11:47:13.019287,1132
,708
,877
,846
,1065
,1201
,967
,960
,1094
,582
,950
,642
,799
,1359
2025 06 26 11:47:13.283993,752
,750
,1068
,429
,1008
,1027
,814
,648
,966
,799
,1069
,1048
,504
,1071
2025 06 26 11:47:13.556223,878
,772
,904
,962
,1225
,1060
,1130
,920
,944
,1097
,1003
,1152
,1168
,1075
2025 06 26 11:47:13.820591,1417
,1099
,1098
,769
,810
,877
,870
,831
,1310
,881
,926
,1011
,1112
,896
2025 06 26 11:47:14.068843,1242
,728
,1017
,1040
,1062
,906
,919
,1276
,1098
,1030
,973
,1005
,693
,1101
2025 06 26 11:47:14.309101,738
,1381
,970
,1252
,855
,979
,1165
,1055
,898
,873
,998
,829
,1025
,1080
2025 06 26 11:47:14.556446,990
,813
,1036
,842
,1163
,689
,1044
,1003
,1089
,1083
,622
,1096
,1053
,905
2025 06 26 11:47:14.812728,1355
,1071
,897
,1189
,953
,971
,1062
,1182
,1097
,1109
,1308
,872
,918
,1506
2025 06 26 11:47:15.086090,963
,1149
,879
,917
,1152
,931
,1317
,1016
,944
,1074
,1280
,1288
,1353
,867
2025 06 26 11:47:15.357321,922
,1029
,871
,1009
,1033
,1098
,1435
,763
,680
,1028
,928
,966
,928
,914
2025 06 26 11:47:15.613545,839
,954
,778
,1059
,723
,943
,1316
,1175
,1050
,1422
,1366
,941
,1192
,1211
2025 06 26 11:47:15.861832,955
,1210
,1009
,1141
,1278
,924
,1162
,917
,618
,940
,882
,1376
,721
,362
2025 06 26 11:47:16.093177,970
,1223
,1086
,1192
,712
,1115
,932
,869
,1223
,1086
,951
,789
,914
,731
2025 06 26 11:47:16.326531,1117
,1015
,1199
,900
,843
,890
,1214
,1017
,1197
,927
,1034
,1078
,1052
,933
2025 06 26 11:47:16.582835,993
,1081
,1250
,950
,1578
,982
,1230
,1135
,1005
,1056
,958
,988
,1049
,1123
2025 06 26 11:47:16.846179,807
,968
,946
,873
,919
,1122
,689
,845
,1068
,906
,1216
,782
,743
,1118
2025 06 26 11:47:17.125401,1079
,862
,1077
,834
,1233
,1097
,1020
,1293
,1196
,993
,904
,861
,896
,795
2025 06 26 11:47:17.390774,1005
,1122
,722
,1153
,1075
,1054
,1250
,1214
,1406
,1295
,908
,885
,630
,965
2025 06 26 11:47:17.647095,1033
,1099
,721
,671
,593
,737
,1123
,834
,682
,1112
,992
,849
,927
,1406
2025 06 26 11:47:17.886393,989
,1024
,873
,1381
,1248
,715
,719
,953
,1209
,958
,594
,1067
,945
,797
2025 06 26 11:47:18.110641,938
,1236
,1118
,811
,1251
,1091
,1248
,1348
,895
,757
,778
,1115
,931
,1245
2025 06 26 11:47:18.366944,874
,839
,920
,1028
,1105
,990
,766
,799
,1114
,1264
,1103
,1056
,1084
,1367
2025 06 26 11:47:20.689105,1186
,1462
,1237
,806
,1043
,1369
,1068
,1314
,1223
,1265
,1113
,884
,1002
,864
2025 06 26 11:47:20.967479,873
,716
,843
,1472
,902
,934
,571
,1191
,1058
,1099
,1102
,1288
,954
,1257
2025 06 26 11:47:21.232708,1105
,1091
,1004
,1109
,982
,644
,1142
,699
,975
,740
,1438
,1030
,934
,1038
2025 06 26 11:47:21.480954,875
,821
,1032
,1402
,1118
,912
,1127
,840
,1034
,1071
,1095
,911
,1124
,806
2025 06 26 11:47:21.704227,888
,1066
,898
,944
,936
,980
,888
,1139
,846
,895
,1240
,1069
,911
,890
2025 06 26 11:47:21.952561,594
,1182
,628
,1184
,1026
,1169
,1164
,946
,626
,1058
,890
,810
,776
,1259
2025 06 26 11:47:22.208837,1200
,1201
,1003
,1048
,988
,998
,1279
,482
,1091
,1060
,919
,1362
,1091
,973
2025 06 26 11:47:22.474161,865
,928
,908
,997
,925
,1059
,332
,948
,1294
,944
,552
,883
,902
,960
2025 06 26 11:47:22.745466,1396
,1363
,1041
,949
,1108
,1157
,702
,1036
,802
,953
,1005
,1240
,856
,953
2025 06 26 11:47:23.016745,977
,1168
,1162
,1022
,1048
,956
,986
,942
,810
,1216
,1132
,810
,1171
,880
2025 06 26 11:47:23.257274,907
,689
,818
,1183
,1127
,777
,1211
,990
,1200
,1095
,1149
,1141
,1158
,1269
2025 06 26 11:47:23.497402,1147
,1162
,868
,1130
,1046
,1090
,892
,803
,826
,593
,1267
,754
,804
,744
2025 06 26 11:47:23.729784,1157
,922
,1155
,1072
,1291
,779
,1326
,870
,873
,855
,715
,1260
,938
,880
2025 06 26 11:47:23.986015,1107
,905
,742
,1119
,798
,855
,1100
,1160
,1069
,796
,782
,854
,684
,873
2025 06 26 11:47:24.249285,900
,982
,1330
,903
,904
,1396
,703
,1113
,672
,1204
,1523
,1029
,1294
,867
2025 06 26 11:47:24.522552,589
,1179
,844
,1205
,941
,789
,876
,1059
,838
,1045
,1005
,1071
,1065
,1061
2025 06 26 11:47:24.786886,1272
,1406
,1226
,1261
,1386
,623
,1306
,1401
,709
,654
,723
,908
,1167
,884
2025 06 26 11:47:25.042210,237
,751
,651
,479
,1042
,811
,985
,1096
,999
,637
,1068
,848
,1066
,781
2025 06 26 11:47:25.282519,1123
,561
,1039
,1179
,615
,774
,1166
,1111
,1171
,1200
,1093
,716
,881
,967
2025 06 26 11:47:25.522813,929
,1175
,1137
,796
,1232
,967
,1071
,1020
,876
,962
,1326
,1014
,1267
,1230
2025 06 26 11:47:25.778324,646
,685
,1161
,1182
,888
,823
,598
,1006
,831
,1027
,1075
,819
,984
,735
2025 06 26 11:47:26.042435,1071
,944
,1198
,742
,836
,1018
,857
,937
,972
,803
,1340
,999
,858
,1067
2025 06 26 11:47:26.315744,1373
,958
,1022
,827
,1008
,718
,1474
,864
,1283
,986
,1142
,1126
,1244
,978
2025 06 26 11:47:26.580057,1252
,856
,541
,846
,895
,1056
,1067
,794
,877
,1266
,1010
,830
,771
,1388
2025 06 26 11:47:26.835341,765
,933
,988
,1295
,1059
,935
,908
,976
,1150
,638
,921
,807
,664
,1213
2025 06 26 11:47:27.075646,973
,948
,819
,1345
,628
,1297
,712
,1201
,976
,1011
,781
,1258
,797
,909
2025 06 26 11:47:27.300089,739
,977
,1018
,1040
,618
,990
,771
,859
,847
,1061
,823
,1340
,976
,1211
2025 06 26 11:47:27.548251,867
,826
,831
,1161
,972
,959
,1139
,1102
,797
,1130
,1171
,1097
,1276
,856
2025 06 26 11:47:27.804465,654
,1136
,776
,1242
,1034
,810
,1162
,913
,1004
,1009
,1306
,931
,870
,953
2025 06 26 11:47:28.083670,1016
,976
,1031
,1111
,914
,631
,1038
,995
,1036
,1138
,942
,1183
,978
,1071
2025 06 26 11:47:28.356985,1136
,1156
,1106
,1046
,867
,824
,868
,910
,1100
,817
,922
,1194
,914
,980
2025 06 26 11:47:28.612174,1104
,792
,786
,1234
,1040
,943
,765
,954
,764
,985
,1055
,930
,1009
,1038
2025 06 26 11:47:28.860479,847
,732
,1001
,923
,811
,1199
,963
,1108
,628
,1216
,730
,1204
,1020
,969
2025 06 26 11:47:29.092819,1030
,1006
,1013
,975
,793
,913
,894
,965
,870
,1043
,965
,864
,1184
,954
2025 06 26 11:47:31.381840,1002
,876
,969
,894
,943
,980
,848
,894
,1099
,1083
,1228
,923
,1005
,810
2025 06 26 11:47:31.646193,824
,1173
,903
,1071
,1078
,1192
,1181
,1163
,603
,1130
,1049
,1101
,1102
,977
2025 06 26 11:47:31.918480,1186
,838
,1288
,983
,947
,1132
,1061
,576
,995
,771
,1069
,901
,970
,884
2025 06 26 11:47:32.198707,1220
,1062
,841
,991
,1222
,958
,887
,718
,795
,1137
,1077
,1136
,1154
,1305
2025 06 26 11:47:32.455040,1077
,1075
,1390
,1152
,729
,897
,686
,1312
,956
,890
,1032
,1235
,881
,1080
2025 06 26 11:47:32.702383,940
,963
,948
,978
,782
,744
,758
,955
,931
,1133
,733
,709
,974
,1160
2025 06 26 11:47:32.942704,708
,974
,1303
,861
,879
,833
,854
,941
,903
,882
,997
,1296
,644
,1109
2025 06 26 11:47:33.199065,1275
,1228
,1403
,1058
,878
,851
,945
,673
,882
,992
,930
,1010
,923
,948
2025 06 26 11:47:33.462355,1078
,817
,819
,807
,983
,1198
,827
,920
,1217
,1016
,1033
,976
,1157
,484
2025 06 26 11:47:33.735614,869
,1034
,888
,900
,1135
,1099
,998
,1258
,982
,999
,1255
,1051
,967
,996
2025 06 26 11:47:33.999949,958
,934
,1015
,932
,818
,1031
,1158
,1068
,1036
,1062
,1115
,982
,1240
,1030
2025 06 26 11:47:34.248111,1177
,953
,1095
,1002
,1061
,1036
,843
,1085
,937
,962
,871
,984
,1085
,1059
2025 06 26 11:47:34.487459,1049
,908
,1027
,962
,843
,1157
,923
,1027
,1043
,809
,1004
,1023
,1159
,1088
2025 06 26 11:47:34.719690,927
,1090
,747
,804
,876
,1147
,1299
,996
,909
,796
,1097
,1061
,1091
,1272
2025 06 26 11:47:34.969003,956
,940
,1044
,986
,1206
,1083
,1235
,744
,812
,1194
,1004
,887
,999
,1035
2025 06 26 11:47:35.224265,1395
,1409
,1174
,942
,1277
,1134
,1094
,1134
,1049
,895
,967
,1277
,1076
,1102
2025 06 26 11:47:35.496552,818
,930
,1214
,926
,949
,993
,1378
,920
,969
,1333
,1085
,1015
,1185
,1027
2025 06 26 11:47:35.775865,1074
,1199
,852
,773
,1151
,1029
,1156
,1059
,1078
,965
,1029
,1170
,861
,1291
2025 06 26 11:47:36.025011,1073
,864
,1006
,1127
,855
,1125
,1313
,1277
,1013
,1117
,1102
,1010
,1130
,1104
2025 06 26 11:47:36.272357,944
,756
,1030
,831
,977
,1103
,1016
,1218
,903
,1111
,1076
,1152
,1043
,1170
2025 06 26 11:47:36.505658,841
,875
,1034
,1197
,974
,1079
,975
,1062
,937
,1280
,1137
,1338
,1312
,1019
2025 06 26 11:47:36.761837,873
,1048
,1204
,967
,741
,683
,909
,950
,967
,1112
,820
,882
,930
,1234
2025 06 26 11:47:37.018135,1070
,1073
,906
,1067
,1061
,1083
,1040
,1015
,1104
,800
,1288
,1304
,888
,1082
2025 06 26 11:47:37.289210,851
,936
,1235
,1217
,966
,1394
,931
,1150
,1205
,1071
,1064
,1074
,998
,841
2025 06 26 11:47:37.568713,708
,941
,924
,865
,1019
,969
,627
,745
,893
,1055
,923
,902
,743
,941
2025 06 26 11:47:37.825047,596
,1005
,632
,868
,887
,1226
,792
,1234
,1148
,1070
,1008
,1153
,1040
,1498
2025 06 26 11:47:38.065473,980
,871
,844
,968
,1266
,891
,941
,953
,957
,997
,1030
,947
,604
,766
2025 06 26 11:47:38.401207,853
,818
,653
,768
,1051
,1005
,931
,1012
,1114
,963
,1000
,974
,767
,846
2025 06 26 11:47:38.641533,664
,972
,973
,1218
,918
,1001
,1058
,1171
,800
,1128
,974
,1053
,675
,550
2025 06 26 11:47:38.896666,854
,946
,1018
,1064
,831
,1055
,1004
,1211
,1248
,822
,1254
,810
,1009
,1085
2025 06 26 11:47:39.169974,903
,1009
,796
,1038
,1177
,682
,1008
,1204
,701
,1010
,1076
,954
,1034
,1061
2025 06 26 11:47:39.442174,1010
,1131
,1253
,858
,1004
,934
,890
,755
,877
,843
,1007
,759
,1009
,1025
2025 06 26 11:47:39.698382,973
,868
,864
,668
,844
,1138
,1009
,1137
,1174
,850
,820
,802
,918
,1083
2025 06 26 11:47:39.953739,859
,976
,698
,623
,1088
,1118
,1120
,969
,1047
,1035
,1128
,1135
,1183
,1038
2025 06 26 15:13:00.069861,1137
,1045
,854
,1297
,1175
,1095
,1127
,910
,900
,1133
,1063
,7
2025 06 27 04:45:39.061202,1322
,935
,883
,763
,911
,1055
,1072
,883
,927
,8
,28420
,28420
2025 06 26 11:47:41.076721,1033
,1217
,944
,881
,1086
,890
,631
,841
,1026
,699
,879
,1111
,1137
,994
2025 06 26 11:47:41.354904,1058
,1240
,1022
,834
,1159
,1021
,874
,821
,942
,918
,1157
,1420
,1075
,1002
2025 06 26 11:47:41.628243,1059
,1104
,919
,905
,1257
,1153
,935
,962
,1025
,696
,1047
,881
,1037
,1240
2025 06 26 11:47:41.876375,1129
,1135
,1063
,658
,1138
,1076
,1255
,1043
,934
,764
,1083
,925
,855
,861
2025 06 26 11:47:42.124704,1231
,1230
,1014
,1090
,1017
,902
,1068
,1072
,1082
,1208
,1071
,1326
,1157
,1282
2025 06 26 11:47:42.355902,1348
,1151
,1077
,1083
,1160
,1079
,992
,948
,1144
,819
,983
,1075
,788
,872
2025 06 26 11:47:44.685051,1160
,871
,1071
,1361
,812
,1059
,938
,1129
,1090
,794
,818
,934
,886
,1060
2025 06 26 11:47:44.958349,1093
,902
,716
,1028
,818
,951
,643
,1046
,901
,871
,782
,877
,656
,740
2025 06 26 11:47:45.237582,755
,660
,775
,811
,609
,835
,879
,797
,752
,1029
,824
,956
,946
,994
2025 06 26 11:47:45.478810,790
,868
,814
,807
,711
,1003
,977
,735
,899
,738
,656
,926
,613
,860
2025 06 26 11:47:45.734162,663
,974
,821
,625
,1163
,732
,764
,826
,793
,1142
,905
,863
,1064
,884
2025 06 26 11:47:45.958522,884
,882
,1008
,824
,782
,977
,627
,1233
,1119
,1314
,836
,1105
,667
,1170
2025 06 26 11:47:46.206831,1184
,1126
,886
,1244
,1118
,1010
,913
,859
,901
,1095
,1411
,1456
,1192
,1032
2025 06 26 11:47:46.462110,932
,932
,986
,1014
,755
,782
,913
,748
,924
,1060
,973
,891
,1024
,791
2025 06 26 11:47:46.726368,1072
,1013
,770
,1122
,748
,1011
,1173
,1028
,975
,655
,976
,1140
,1250
,991
2025 06 26 11:47:46.999601,1295
,1198
,1145
,1005
,1350
,1098
,1102
,1032
,826
,633
,1099
,1001
,838
,1066
2025 06 26 11:47:47.262841,1044
,858
,1015
,577
,1000
,1214
,1028
,1244
,1214
,622
,886
,984
,810
,843
2025 06 26 11:47:47.511094,1021
,733
,1039
,662
,685
,886
,1145
,1003
,995
,978
,1144
,1074
,892
,1043
2025 06 26 11:47:47.751337,1008
,1156
,838
,998
,1014
,792
,902
,968
,713
,836
,999
,36
2025 06 27 05:15:08.724697,1021
,1041
,1032
,854
,1091
,900
,1079
,1137
,37
,4355
,8452
,20739
2025 06 26 11:47:47.613222,833
,1035
,1094
,959
,829
,1050
,1017
,803
,953
,923
,852
,720
,839
,839
2025 06 26 11:47:47.885455,914
,1087
,760
,792
,910
,1191
,810
,963
,950
,804
,1113
,1081
,969
,1030
2025 06 26 11:47:48.141721,1023
,1117
,1319
,932
,1182
,933
,967
,976
,938
,1031
,898
,952
,894
,687
2025 06 26 11:47:48.389105,1096
,907
,784
,855
,931
,869
,836
,1256
,963
,945
,1081
,1222
,854
,1108
2025 06 26 11:47:48.621352,958
,1166
,584
,848
,850
,958
,1060
,1311
,1313
,1061
,1101
,1151
,1067
,881
2025 06 26 11:47:48.854686,876
,864
,1004
,1091
,861
,790
,1171
,1252
,1097
,1455
,760
,1043
,1129
,1386
2025 06 26 11:47:49.111053,1028
,1485
,1227
,867
,1060
,962
,1221
,1174
,1021
,1143
,853
,714
,1007
,943
2025 06 26 11:47:49.374324,874
,1149
,1147
,988
,1228
,997
,980
,1058
,1025
,1047
,919
,958
,1352
,1129
2025 06 26 11:47:49.653614,1260
,753
,825
,1095
,1428
,1066
,872
,1096
,891
,933
,929
,1207
,1053
,1001
2025 06 26 11:47:49.919039,1211
,760
,889
,865
,1095
,962
,870
,1080
,902
,1152
,1220
,1023
,1187
,999
2025 06 26 11:47:50.174358,720
,1003
,1153
,1043
,836
,1268
,854
,1149
,972
,771
,923
,1072
,1004
,880
2025 06 26 11:47:50.414612,881
,1335
,1167
,946
,1139
,715
,879
,1023
,1091
,884
,893
,1012
,1011
,805
2025 06 26 11:47:50.638859,1169
,709
,1014
,966
,1110
,1035
,835
,1093
,680
,641
,976
,1117
,1026
,907
2025 06 26 11:47:50.886136,813
,1134
,1068
,1065
,886
,689
,909
,1010
,1003
,1205
,872
,1465
,953
,1012
2025 06 26 11:47:51.142482,893
,889
,986
,1059
,658
,1138
,1004
,958
,795
,957
,1009
,999
,733
,934
2025 06 26 11:47:51.415781,1085
,1025
,923
,980
,1192
,1081
,871
,894
,1300
,976
,1094
,996
,868
,1201
2025 06 26 11:47:51.688050,683
,1028
,763
,974
,1243
,920
,1053
,986
,919
,963
,1064
,970
,914
,612
2025 06 26 11:47:51.943373,942
,961
,862
,1128
,921
,888
,855
,937
,863
,931
,1046
,862
,804
,935
2025 06 26 11:47:52.199686,775
,1110
,1091
,1052
,1103
,865
,978
,994
,970
,894
,872
,920
,863
,801
2025 06 26 11:47:52.432043,708
,901
,1235
,839
,900
,863
,775
,805
,935
,989
,890
,1037
,797
,1055
2025 06 26 11:47:52.687297,971
,996
,818
,1042
,590
,991
,982
,832
,1040
,805
,1167
,931
,907
,799
2025 06 26 11:47:52.943680,934
,1016
,824
,742
,1293
,898
,815
,777
,948
,1038
,923
,900
,771
,830
2025 06 26 11:47:53.216807,905
,932
,905
,1026
,1276
,930
,923
,1054
,698
,1247
,1057
,473
,772
,1064
2025 06 26 11:47:53.496057,711
,1143
,796
,932
,1298
,926
,1007
,950
,1088
,1054
,988
,822
,1325
,831
2025 06 26 11:47:53.760417,1063
,1004
,979
,979
,1208
,1086
,1040
,862
,900
,1101
,1069
,860
,935
,867
2025 06 26 11:47:54.016838,1076
,1062
,796
,1081
,881
,734
,1377
,1122
,780
,1201
,755
,1224
,1116
,1172
2025 06 26 11:47:56.273825,966
,1104
,1394
,968
,952
,782
,932
,1058
,867
,870
,999
,1036
,1145
,1141
2025 06 26 11:47:56.529108,1021
,984
,1091
,1312
,1091
,1043
,1118
,1056
,1145
,773
,1060
,1089
,922
,1080
2025 06 26 11:47:56.785367,1230
,994
,1182
,997
,1131
,1262
,1080
,1228
,1168
,1194
,1074
,1335
,1148
,930
2025 06 26 11:47:57.058713,1026
,923
,859
,1037
,1166
,1009
,1179
,1277
,620
,1070
,1285
,988
,950
,1126
2025 06 26 11:47:57.337915,727
,1226
,1151
,853
,1075
,1018
,1154
,1187
,1130
,1073
,1460
,956
,1017
,1001
2025 06 26 11:47:57.586311,956
,1005
,1123
,1121
,1257
,1152
,1222
,1177
,1215
,1015
,921
,877
,953
,983
2025 06 26 11:47:57.834586,1001
,1073
,1089
,1049
,1026
,999
,1022
,1201
,1032
,1181
,1015
,1054
,670
,1242
2025 06 26 11:47:58.059005,1024
,897
,996
,842
,961
,864
,1083
,1135
,986
,1104
,975
,1137
,1319
,726
2025 06 26 11:47:58.306211,917
,1112
,1011
,1109
,1397
,949
,1102
,1002
,897
,960
,1033
,844
,1107
,936
2025 06 26 11:47:58.562487,579
,1066
,873
,806
,855
,996
,830
,810
,1016
,968
,1185
,1102
,1125
,1290
2025 06 26 11:47:58.835790,827
,1182
,892
,1152
,803
,908
,1013
,1022
,1057
,1008
,1270
,1101
,935
,881
2025 06 26 11:47:59.107116,1085
,1112
,954
,1034
,1083
,1090
,1250
,999
,1019
,830
,1003
,1602
,827
,1066
2025 06 26 11:47:59.363399,1077
,884
,835
,1140
,933
,1162
,1042
,1180
,1029
,1038
,1052
,1252
,804
,908
2025 06 26 11:47:59.611679,821
,1029
,1036
,915
,971
,620
,929
,1035
,932
,886
,966
,1033
,1033
,1017
2025 06 26 11:47:59.843769,797
,981
,1052
,1269
,814
,946
,1151
,1031
,1058
,933
,1178
,1004
,802
,723
2025 06 26 11:48:00.076109,798
,922
,781
,831
,1204
,856
,1180
,1075
,1220
,992
,933
,982
,1119
,844
2025 06 26 11:48:00.332393,879
,1170
,1009
,770
,932
,918
,1068
,1198
,1036
,863
,1096
,1083
,1124
,1049
2025 06 26 11:48:00.596667,1000
,983
,1136
,593
,1005
,1010
,970
,1199
,1039
,1018
,679
,1126
,790
,920
2025 06 26 11:48:00.875930,618
,939
,525
,1292
,987
,877
,843
,1091
,1108
,1079
,931
,1343
,1089
,927
2025 06 26 11:48:01.140215,1071
,1076
,1308
,937
,1040
,1285
,1095
,1127
,849
,1125
,1084
,1133
,759
,998
2025 06 26 11:48:01.396501,1042
,992
,1217
,1059
,801
,936
,1009
,817
,1106
,1114
,929
,933
,840
,1207
2025 06 26 11:48:01.636865,881
,812
,1061
,883
,1004
,889
,1404
,849
,849
,1070
,1052
,963
,915
,867
2025 06 26 11:48:01.876199,1023
,926
,930
,857
,1101
,944
,966
,1257
,851
,1051
,954
,819
,974
,930
2025 06 26 11:48:02.132558,940
,896
,697
,1013
,897
,962
,1367
,921
,966
,995
,1129
,673
,1039
,1248
2025 06 26 11:48:02.404887,1116
,654
,1053
,1084
,986
,887
,611
,824
,920
,1097
,853
,1243
,948
,875
2025 06 26 11:48:02.677261,1385
,899
,1091
,887
,1070
,761
,892
,811
,990
,1009
,1029
,1181
,777
,896
2025 06 26 11:48:02.941487,1332
,883
,927
,996
,1079
,1405
,955
,987
,939
,856
,1123
,1081
,1008
,1068
2025 06 26 11:48:03.189814,885
,1375
,650
,1018
,1238
,1206
,1215
,1080
,1030
,1182
,1092
,1023
,1328
,1061
2025 06 26 11:48:03.421130,1046
,759
,1083
,916
,904
,945
,841
,1177
,1098
,838
,1036
,991
,1452
,892
2025 06 26 11:48:03.653431,1069
,1283
,822
,1131
,870
,852
,1147
,1302
,1063
,1167
,1064
,937
,963
,1043
2025 06 26 11:48:03.909699,1169
,721
,1157
,752
,790
,1116
,1204
,1061
,1242
,974
,934
,1187
,967
,1057
2025 06 26 11:48:04.166062,1274
,907
,1101
,1300
,1121
,992
,1108
,1102
,801
,1187
,983
,1146
,845
,1130
2025 06 26 11:48:04.438416,1219
,1326
,1152
,1126
,1367
,940
,871
,1253
,882
,996
,849
,1107
,969
,929
2025 06 26 11:48:04.717721,1125
,1244
,1115
,959
,1020
,1310
,1142
,1087
,939
,851
,1195
,891
,1119
,838
2025 06 26 11:48:04.966096,948
,993
,1102
,1102
,1280
,922
,1001
,1117
,981
,911
,727
,1026
,1081
,1315
2025 06 26 11:48:07.231184,1039
,1037
,1113
,1226
,997
,1266
,834
,812
,1023
,950
,967
,906
,878
,949
2025 06 26 11:48:07.479427,1288
,1043
,955
,1057
,989
,1183
,1353
,1229
,785
,951
,920
,934
,985
,927
2025 06 26 11:48:07.735761,989
,1110
,800
,1267
,1028
,1037
,988
,1092
,945
,1014
,1015
,960
,926
,906
2025 06 26 11:48:08.008998,1048
,769
,1086
,1005
,971
,938
,562
,804
,977
,809
,1159
,962
,1113
,974
2025 06 26 11:48:08.280298,1280
,1152
,1086
,739
,1092
,1166
,1078
,1075
,929
,983
,809
,849
,1108
,1146
2025 06 26 11:48:08.536588,914
,946
,839
,1002
,837
,912
,915
,1014
,887
,744
,1145
,699
,864
,1130
2025 06 26 11:48:08.784899,975
,741
,1035
,712
,724
,699
,944
,1070
,1270
,889
,900
,1159
,1008
,1351
2025 06 26 11:48:09.016186,918
,1075
,1188
,947
,1169
,1068
,858
,754
,1105
,1182
,883
,1159
,813
,825
2025 06 26 11:48:09.249567,864
,901
,839
,745
,918
,872
,1354
,937
,1153
,1060
,1005
,814
,853
,803
2025 06 26 11:48:09.505921,1088
,997
,1304
,705
,1158
,677
,906
,1135
,1103
,929
,951
,747
,1120
,1302
2025 06 26 11:48:09.769305,1099
,997
,1191
,1093
,1191
,1024
,1089
,907
,1022
,918
,1142
,814
,938
,1154
2025 06 26 11:48:10.048586,1123
,988
,754
,1006
,706
,1052
,891
,1109
,870
,1076
,952
,1203
,890
,1131
2025 06 26 11:48:10.313945,1286
,821
,1166
,1165
,1158
,997
,1326
,980
,1276
,855
,852
,128
,44036
2025 06 26 11:48:10.809197,612
,1096
,791
,1038
,860
,1070
,1039
,1249
,927
,1058
,836
,922
,756
,823
2025 06 26 11:48:11.033456,1030
,1083
,1141
,847
,1016
,1243
,1346
,1077
,1044
,1034
,1172
,1262
,802
,1208
2025 06 26 11:48:11.281696,986
,862
,1207
,1002
,791
,978
,970
,862
,803
,1120
,891
,1133
,840
,918
2025 06 26 11:48:11.538070,1105
,897
,1107
,1005
,884
,900
,1027
,843
,942
,1150
,565
,947
,1318
,1108
2025 06 26 11:48:11.810456,1096
,1323
,1083
,1134
,1164
,1152
,847
,1102
,1127
,1055
,1031
,869
,991
,1150
2025 06 26 11:48:12.082677,754
,773
,1057
,807
,589
,846
,796
,861
,992
,1094
,1084
,964
,1233
,843
2025 06 26 11:48:12.338957,1174
,921
,873
,1176
,1119
,968
,912
,1034
,947
,865
,791
,1013
,914
,1031
2025 06 26 11:48:12.594179,1245
,1136
,1214
,1167
,1199
,793
,1202
,874
,771
,1069
,712
,915
,933
,1065
2025 06 26 11:48:12.826512,1017
,1060
,952
,1029
,1016
,869
,844
,809
,1047
,842
,1128
,1027
,927
,836
2025 06 26 11:48:13.082787,1021
,942
,1089
,792
,1077
,976
,1195
,972
,875
,844
,1035
,1236
,1046
,1097
2025 06 26 11:48:13.339080,942
,1401
,899
,809
,1133
,921
,986
,924
,1019
,874
,833
,1098
,950
,676
2025 06 26 11:48:13.611359,945
,1084
,1039
,884
,947
,876
,920
,770
,816
,1019
,636
,901
,537
,956
2025 06 26 11:48:13.890601,1015
,879
,1118
,982
,829
,993
,1022
,1338
,1227
,1053
,1114
,1103
,1074
,964
2025 06 26 11:48:14.139955,909
,850
,929
,811
,913
,869
,918
,700
,981
,1102
,974
,903
,1104
,1076
2025 06 26 11:48:14.387355,926
,799
,778
,926
,821
,930
,959
,1130
,1037
,980
,743
,978
,1061
,913
2025 06 26 11:48:14.611624,962
,1148
,951
,1045
,853
,1168
,994
,1193
,991
,1181
,940
,1023
,1041
,897
2025 06 26 11:48:14.859940,975
,1154
,918
,1089
,1010
,895
,897
,831
,1012
,832
,1045
,833
,1062
,1057
2025 06 26 11:48:15.115420,1087
,947
,837
,755
,958
,886
,871
,774
,945
,729
,1122
,927
,925
,1015
2025 06 26 11:48:15.379555,985
,1093
,860
,911
,866
,962
,845
,673
,954
,976
,1046
,837
,1097
,1100
2025 06 26 11:48:15.652932,789
,1181
,1033
,895
,932
,887
,1021
,916
,1182
,870
,1197
,863
,985
,1222
2025 06 26 11:48:15.916146,936
,719
,643
,919
,977
,830
,1108
,936
,984
,1127
,1043
,1161
,1022
,837
2025 06 26 11:48:16.164518,680
,990
,1250
,986
,1035
,1073
,845
,780
,870
,1030
,876
,1069
,1170
,839
2025 06 26 11:48:16.404710,1026
,1124
,930
,620
,759
,895
,1009
,1135
,996
,855
,825
,954
,899
,1063
2025 06 26 11:48:16.630021,784
,967
,1062
,1072
,981
,964
,787
,1055
,907
,1034
,1004
,880
,1118
,884
2025 06 26 11:48:16.885312,1035
,885
,1142
,1115
,988
,776
,1045
,530
,1084
,1161
,1087
,856
,881
,1084
2025 06 26 11:50:06.118146,1240
,1237
,1231
,1233
,1232
,1237
,1233
,1234
,1233
,1241
,1254
,1234
,1229
,1228
2025 06 26 11:50:06.374527,1245
,1352
,1144
,1194
,1248
,1258
,1267
,1278
,1294
,1305
,1338
,1352
,1355
,1330
2025 06 26 11:50:06.646887,1275
,1247
,1234
,1234
,1234
,1234
,1235
,1238
,1240
,1244
,1238
,1240
,1238
,1238
2025 06 26 11:50:06.919207,1240
,1239
,1241
,1241
,1244
,1263
,1237
,1235
,1237
,1246
,1357
,1088
,1187
,1252
2025 06 26 11:50:07.191535,1264
,1275
,1282
,1304
,1312
,1333
,1345
,1354
,1331
,1295
,1262
,1244
,1238
,1237
2025 06 26 11:50:07.447806,1237
,1238
,1236
,1246
,1247
,1248
,1244
,1243
,1241
,1240
,1243
,1241
,1243
,1242
2025 06 26 11:50:07.695171,1241
,1259
,1246
,1238
,1237
,1236
,1241
,1342
,1235
,1075
,1237
,1264
,1275
,1282
2025 06 26 11:50:10.000256,1317
,1322
,1329
,1344
,1357
,1381
,1393
,1409
,1410
,1393
,1339
,1310
,1294
,1296
2025 06 26 11:50:10.257557,1284
,1286
,1293
,1288
,1288
,1288
,1286
,1283
,1284
,1276
,1279
,1279
,1292
,1297
2025 06 26 11:50:10.536394,1268
,1270
,1265
,1304
,1270
,1099
,1255
,1284
,1290
,1302
,1307
,1327
,1342
,1368
2025 06 26 11:50:10.809670,1375
,1368
,1334
,1295
,1259
,1253
,1247
,1246
,1249
,1249
,1249
,1253
,1250
,1254
2025 06 26 11:50:11.057107,1248
,1246
,1246
,1248
,1244
,1244
,1245
,1244
,1262
,1257
,1240
,1236
,1237
,1256
2025 06 26 11:50:11.305447,1352
,1152
,1107
,1246
,1254
,1262
,1272
,1283
,1291
,1306
,1318
,1342
,1360
,1357
2025 06 26 11:50:11.537621,1335
,1293
,1260
,1243
,1234
,1234
,1231
,1236
,1233
,1235
,1239
,1241
,1237
,1239
2025 06 26 11:50:11.777928,1238
,1239
,1233
,1236
,1237
,1232
,1257
,1249
,1230
,1226
,1225
,1247
,1351
,1052
2025 06 26 11:50:12.033279,1196
,1240
,1257
,1269
,1280
,1289
,1314
,1329
,1349
,1350
,1304
,1262
,1241
,1228
2025 06 26 11:50:12.306575,1222
,1222
,1221
,1225
,1224
,1229
,1223
,1221
,1221
,1226
,1221
,1222
,1221
,1222
2025 06 26 11:50:12.585894,1241
,1239
,1218
,1214
,1216
,1279
,1302
,1068
,1229
,1246
,1253
,1271
,1272
,1292
2025 06 26 11:50:12.850199,1301
,1323
,1351
,1346
,1327
,1284
,1252
,1232
,1224
,1228
,1226
,1227
,1226
,1235
2025 06 26 11:50:13.098775,1233
,1230
,1233
,1228
,1234
,1234
,1229
,1232
,1226
,1235
,1238
,1252
,1237
,1226
2025 06 26 11:50:13.322832,1226
,1230
,1233
,1340
,1212
,1086
,1241
,1249
,1261
,1269
,1279
,1288
,1302
,1333
2025 06 26 11:50:13.571158,1346
,1339
,1308
,1268
,1244
,1234
,1228
,1226
,1224
,1230
,1230
,1232
,1225
